epoch,lr,train_loss,train_accuracy,val_loss,val_accuracy,val_macro_f1,val_trial_accuracy,val_k3,ema_loss,ema_accuracy,seconds
1,5.9999999999999995e-05,1.429815886670893,0.4339772727272727,1.0699324394527234,0.5736842105263158,0.5481757253506853,0.65,0.6161764705882353,1.60989669122194,0.2,6.083485000002838
2,0.00011999999999999999,1.250781963521784,0.5507954545454545,0.8945431797127975,0.6828947368421052,0.6688603942894218,0.825,0.7426470588235294,1.6127968198374698,0.2,5.966851600001974
3,0.00018,1.0795924984325063,0.680340909090909,0.5881134346911782,0.7907894736842105,0.789876208627428,1.0,0.8588235294117647,1.6249974326083534,0.2,6.010050000004412
4,0.00023999999999999998,0.9616057699376886,0.7521590909090909,0.5030866729585748,0.8065789473684211,0.8076205713530346,1.0,0.8691176470588236,1.6579731175774022,0.2,6.004786700003024
5,0.0003,0.9347516443512657,0.7861363636363636,0.5075096337418807,0.8302631578947368,0.8265069666458846,0.95,0.888235294117647,1.7104273745888159,0.2,5.989880200002517
6,0.00035999999999999997,0.8673200754685836,0.8177272727272727,0.4303213210482346,0.875,0.8750523946935667,1.0,0.9294117647058824,1.7774414049951655,0.2,5.962871700001415
7,0.00042,0.8711205098845742,0.8194318181818182,0.39426357840236864,0.8644736842105263,0.8634970868118209,1.0,0.9205882352941176,1.8660130550986842,0.2,5.983985899998515
8,0.0004799999999999999,0.8474725844643333,0.8295454545454546,0.43423535196404706,0.8447368421052631,0.843940169884404,1.0,0.8985294117647059,1.9744249845805921,0.2,5.993010400001367
9,0.00054,0.8216403566707264,0.8472727272727273,0.4705409802888569,0.8407894736842105,0.8441565441256508,1.0,0.9073529411764706,2.1375681023848685,0.2,5.982057100001839
10,0.0005999999999999998,0.8042148791659962,0.8445454545454546,0.35858699334295174,0.8828947368421053,0.8814074863717689,1.0,0.9338235294117647,2.3582741185238487,0.2,5.969490000003134
11,0.0006,0.7930083066766912,0.8590909090909091,0.40787244972429776,0.8592105263157894,0.8574236117193177,1.0,0.9161764705882353,2.5896272361278534,0.2,5.96889829999418
12,0.0005999235075645696,0.8013074166124518,0.8504545454545455,0.3839007923477574,0.8855263157894737,0.8859538839037315,1.0,0.95,2.8109199923904318,0.2,5.977500699998927
13,0.0005996940693306837,0.7900248089703646,0.8636363636363636,0.3814445501879642,0.8763157894736842,0.8753061328658459,1.0,0.9323529411764706,2.9651988777675125,0.2,6.0027751000016
14,0.0005993118024955998,0.7817716639692133,0.8645454545454545,0.47958541653658215,0.8355263157894737,0.8384288413141656,1.0,0.8808823529411764,3.1727094952213135,0.2,5.989947699999902
15,0.0005987769023215627,0.7440654089234092,0.88375,0.38434325723271623,0.8789473684210526,0.877602636706119,1.0,0.9279411764705883,3.3429743717375553,0.2,5.9790415999959805
16,0.0005980896420360653,0.7372655747153543,0.8857954545454545,0.37771074395430715,0.8710526315789474,0.871678958330356,1.0,0.9397058823529412,3.482406375125835,0.2,5.988015099996119
17,0.0005972503726922827,0.7440702475201,0.8823863636363637,0.380912510031148,0.8776315789473684,0.8774563559913624,0.975,0.9294117647058824,3.5730478790245557,0.2,5.983051399998658
18,0.0005962595229897549,0.7545074410872026,0.8739772727272728,0.3870966942686784,0.8855263157894737,0.8854942963056469,1.0,0.9294117647058824,3.665951578201432,0.2,5.983829400000104
19,0.0005951175990554061,0.7590925869074735,0.8835227272727273,0.4023707750596498,0.8710526315789474,0.8679215555285191,1.0,0.9088235294117647,3.706608059610191,0.2,6.004864900001849
20,0.0005938251841850148,0.7075110207904469,0.9025,0.43822917028477315,0.8736842105263158,0.8713631309036195,0.975,0.925,3.690631063439344,0.2,5.98923370000557
21,0.0005923829385452652,0.7458540181680159,0.8863636363636364,0.40569034438384205,0.8921052631578947,0.8916754846747021,1.0,0.9235294117647059,3.7078259920995484,0.2,5.961951700002828
22,0.0005907915988365347,0.7452751630002802,0.8897727272727273,0.36809732568891423,0.8921052631578947,0.8922481999194828,1.0,0.9441176470588235,3.7509101466520836,0.2,5.980717600003118
23,0.0005890519779165858,0.755906856060028,0.8976136363636363,0.3765960693359375,0.8921052631578947,0.8921763692367692,1.0,0.9470588235294117,3.752444217197205,0.2,5.991841300005035
24,0.0005871649643853574,0.7078582213141701,0.9063636363636364,0.4089257902220676,0.868421052631579,0.8688740333182207,1.0,0.9191176470588235,3.7387006256533297,0.2,5.992977099995187
25,0.000585131522131068,0.7107544686577537,0.9069318181818182,0.46325990683154056,0.8552631578947368,0.8571994185498963,1.0,0.9176470588235294,3.6783152330078575,0.2,6.003160399995977
26,0.0005829526898378601,0.715052250515331,0.9025,0.42684382451208014,0.8657894736842106,0.865778793140171,1.0,0.9205882352941176,3.5558560019653096,0.2,5.9691015999997035
27,0.0005806295804552395,0.7063022219051014,0.9086363636363637,0.39430152491519327,0.8881578947368421,0.8871314371240336,1.0,0.9411764705882353,3.4280292310604925,0.2026315789473684,5.965675899999042
28,0.0005781633806295796,0.6852854982289401,0.9114772727272727,0.41152893838129545,0.8671052631578947,0.8665943007601481,0.975,0.9176470588235294,3.235298939676661,0.20394736842105263,5.988804499997059
29,0.0005755553500979822,0.6603620698235252,0.9160227272727273,0.39557639674136513,0.881578947368421,0.879749170382976,1.0,0.925,2.948317859008124,0.21710526315789475,6.031979899998987
30,0.0005728068210448012,0.7065220496871255,0.9163636363636364,0.42692457312031795,0.8552631578947368,0.8509222442896952,1.0,0.9176470588235294,2.6317077233603126,0.25,5.98185889999877
31,0.0005699191974211625,0.700794311761856,0.9226136363636364,0.424104789997402,0.8842105263157894,0.8830213645758658,1.0,0.9382352941176471,2.306328381911704,0.29605263157894735,5.968001000001095
32,0.0005668939542278249,0.691896988695318,0.915,0.3744674290481367,0.8776315789473684,0.8779153395707375,1.0,0.9294117647058824,1.9858671491867617,0.37105263157894736,6.022898399998667
33,0.0005637326367617472,0.7043408820845865,0.9171590909090909,0.3797691342077757,0.9,0.900504396584682,1.0,0.9411764705882353,1.6914391566264002,0.45921052631578946,5.98669570000493
34,0.0005604368598267504,0.7264343431862917,0.9088636363636363,0.3722087257786801,0.9052631578947369,0.9050824617295582,1.0,0.9529411764705882,1.3871733816046463,0.5197368421052632,6.019782499999565
35,0.0005570083069086733,0.6516084107485685,0.9379545454545455,0.43342329326428863,0.8697368421052631,0.8677207024764557,1.0,0.925,1.1313982516527177,0.5947368421052631,5.9739234000007855
36,0.0005534487293154471,0.6796421005509117,0.9304545454545454,0.40219806809174385,0.906578947368421,0.9064992836873016,1.0,0.95,0.9174043760487908,0.6723684210526316,5.973303599996143
37,0.0005497599452825259,0.6535357334397056,0.935,0.45339098447247556,0.8526315789473684,0.8444178648060321,1.0,0.9102941176470588,0.7692637388643465,0.7157894736842105,5.951157800001965
38,0.0005459438390441295,0.6764423141696236,0.9285227272727272,0.40265276118328697,0.881578947368421,0.8796028138708675,1.0,0.9367647058823529,0.651082410781007,0.775,5.996140699993703
39,0.0005420023598707758,0.6824526691436767,0.9230681818181818,0.4495923908133256,0.8592105263157894,0.8585036159634196,1.0,0.9176470588235294,0.5535528488849338,0.8092105263157895,5.979936700001417
40,0.0005379375210735911,0.6993857149644331,0.9165909090909091,0.4543448379165248,0.8578947368421053,0.8538210614468789,1.0,0.9147058823529411,0.4903168919839357,0.8407894736842105,5.996992500004126
41,0.0005337513989759092,0.6601497799699957,0.9261363636363636,0.3826966342173125,0.8868421052631579,0.8860947797234828,1.0,0.9338235294117647,0.44799531729597797,0.8578947368421053,6.0031280999974115
42,0.0005294461318526833,0.6739231866056269,0.9264772727272728,0.4120385028814015,0.8868421052631579,0.8869488756535351,1.0,0.9382352941176471,0.41667428299000386,0.875,5.965918000001693
43,0.0005250239188382536,0.6345767256346616,0.9443181818181818,0.44305026342994286,0.8565789473684211,0.8520145706420215,1.0,0.8985294117647059,0.39640667563990545,0.8868421052631579,5.98868890000449
44,0.0005204870188030272,0.6582843381708319,0.9248863636363637,0.4775897772688615,0.85,0.8481965757357075,0.975,0.8970588235294118,0.3826167652481481,0.8947368421052632,5.983551900004386
45,0.0005158377491996452,0.681792423508384,0.9195454545454546,0.3850045455129523,0.8802631578947369,0.8802538606045601,1.0,0.9426470588235294,0.37208950739157826,0.8960526315789473,5.984901099996932
46,0.0005110784848792257,0.6553846348415722,0.9335227272727272,0.42473590185767723,0.8657894736842106,0.8653447566765093,1.0,0.925,0.3646654433325717,0.8986842105263158,6.0078102999978
47,0.0005062116568782877,0.6291979054971175,0.9464772727272728,0.3791180064803676,0.9,0.8994915421494241,1.0,0.9470588235294117,0.36032478025085046,0.9013157894736842,5.998078700002225
48,0.0005012397511769754,0.6223900365829468,0.9398863636363637,0.42014714322592084,0.8657894736842106,0.8630060698343109,1.0,0.925,0.35596474126765604,0.9,5.97954259999824
49,0.0004961653074292177,0.6322315979003906,0.9439772727272727,0.43493038102200154,0.8644736842105263,0.8640604311479807,1.0,0.925,0.354266157275752,0.8960526315789473,5.9829764000023715
50,0.0004909909176654702,0.6775670675797896,0.9338636363636363,0.42527770807868553,0.8776315789473684,0.8771687718937177,1.0,0.9411764705882353,0.3537463134840915,0.8947368421052632,5.969767700000375
51,0.00048571922496870357,0.6691798223148693,0.9301136363636363,0.41718151632108186,0.8710526315789474,0.8716143148907542,1.0,0.9367647058823529,0.3542666178000601,0.8986842105263158,5.988959000002069
52,0.00048035292212431514,0.6303925676779314,0.9459090909090909,0.3714923256321957,0.8960526315789473,0.8962003317395494,1.0,0.9441176470588235,0.35314824894854896,0.9013157894736842,5.947591999996803
53,0.0004748947502446508,0.6460401363806291,0.9447727272727273,0.39371711329409953,0.8868421052631579,0.8859841183616023,1.0,0.9485294117647058,0.35197372530636034,0.8986842105263158,6.008863700000802
54,0.00046934749736884306,0.6697894785620949,0.9327272727272727,0.41885620920281663,0.8828947368421053,0.880965103004046,1.0,0.9338235294117647,0.35333904373018366,0.9013157894736842,5.970781500000157
55,0.0004637139970386777,0.6587171792984009,0.9292045454545454,0.43466877090303524,0.8697368421052631,0.866748730370588,1.0,0.9279411764705883,0.35422674574350055,0.9026315789473685,6.004977399999916
56,0.000457997126851218,0.6215488135814666,0.9468181818181818,0.4218297462714346,0.8868421052631579,0.8857599028953768,1.0,0.9264705882352942,0.35352502182910317,0.9,6.005054900000687
57,0.00045219980698892607,0.6112463792887601,0.9520454545454545,0.36287962198257445,0.8947368421052632,0.8946643501747353,1.0,0.9529411764705882,0.3519018079105176,0.9039473684210526,5.993464300001506
58,0.0004463249987280305,0.6389877178452231,0.9404545454545454,0.41172866758547333,0.8697368421052631,0.8669421835940053,1.0,0.9220588235294118,0.3529061373911406,0.9026315789473685,6.01678130000073
59,0.000440375702925904,0.5848508711294694,0.9593181818181818,0.378782172893223,0.8960526315789473,0.8961976517154646,1.0,0.9470588235294117,0.35038345801202875,0.9039473684210526,5.979268299997784
60,0.0004343549584882226,0.6513365391167727,0.9376136363636364,0.3761003199376558,0.8921052631578947,0.8917735803565314,1.0,0.9470588235294117,0.35205174559041075,0.9026315789473685,5.996393100002024
61,0.00042826584081669025,0.6645536897399209,0.9426136363636364,0.4191138411823072,0.8671052631578947,0.8674136909625021,1.0,0.925,0.35477732608192847,0.9,6.0035000999996555
62,0.00042211146023812037,0.6610288602655584,0.9322727272727273,0.4142228377492804,0.8736842105263158,0.8724535722956599,1.0,0.9411764705882353,0.35714348272273416,0.9013157894736842,5.967848899999808
63,0.0004158949604156783,0.6283859781785445,0.9375,0.41491301655769347,0.8776315789473684,0.8745902022670038,0.975,0.913235294117647,0.35754470793824444,0.9,5.975661600001331
64,0.0004096195167430953,0.6618219362605702,0.9348863636363637,0.4701628023072293,0.8539473684210527,0.8526246301324356,1.0,0.8838235294117647,0.3602138716923563,0.8947368421052632,5.988981299997249
65,0.0004032883347226749,0.6181025138768282,0.9488636363636364,0.37309493955812956,0.8828947368421053,0.88240198907357,1.0,0.9338235294117647,0.35964929618333513,0.9026315789473685,5.987497299996903
66,0.0003969046483279189,0.622393825487657,0.9461363636363637,0.47640722111651773,0.8578947368421053,0.8578133884408281,1.0,0.9058823529411765,0.36071496354906185,0.8973684210526316,6.007117900000594
67,0.0003904717183516109,0.6362308482690291,0.9476136363636364,0.4027278693098771,0.8842105263157894,0.8840845671803855,1.0,0.9382352941176471,0.36178809655340094,0.8986842105263158,5.9817370000018855
68,0.0003839928307402005,0.6319724056937478,0.9492045454545455,0.41188358507658307,0.8934210526315789,0.8936234347613354,1.0,0.9323529411764706,0.36093725969916896,0.8973684210526316,5.957175099996675
69,0.00037747129491533916,0.6676016250523654,0.9329545454545455,0.41603915471779673,0.8763157894736842,0.8733478047719307,1.0,0.9323529411764706,0.3619427721751364,0.8960526315789473,5.997734799995669
70,0.0003709104420834241,0.6472561396252026,0.9392045454545455,0.42856007720294753,0.8671052631578947,0.8655709076478258,1.0,0.9235294117647059,0.36525308803508155,0.8960526315789473,6.050580800001626
71,0.00036431362353401533,0.6342983394319361,0.9523863636363636,0.41476340042917353,0.8828947368421053,0.881946977173613,1.0,0.9279411764705883,0.3676567488595059,0.8973684210526316,6.022817800003395
72,0.0003576842089279937,0.6620928959413008,0.9517045454545454,0.4182925594480414,0.8855263157894737,0.8849598149761226,1.0,0.9426470588235294,0.36907717993384914,0.8973684210526316,6.026418800000101
73,0.0003510255845763356,0.6125264202464711,0.96,0.36802589077698555,0.8881578947368421,0.8875590573931126,1.0,0.95,0.3699919848065627,0.8960526315789473,6.014405900001293
74,0.0003443411517103819,0.6908679493990811,0.9298863636363637,0.4162849024722451,0.8763157894736842,0.8743130995941545,1.0,0.9205882352941176,0.3713766800729852,0.8960526315789473,6.041559199999028
75,0.0003376343247444856,0.6305267470533198,0.9509090909090909,0.40372491102469593,0.8986842105263158,0.8976149611302928,1.0,0.9441176470588235,0.3703731336091694,0.8973684210526316,6.007334300004004
76,0.0003309085295319264,0.6388848687301982,0.9497727272727273,0.4195838517264316,0.875,0.8735733789632372,1.0,0.9264705882352942,0.3704941994265506,0.8960526315789473,6.008877500004019
77,0.0003241672016149815,0.6502404301816767,0.9403409090909091,0.4494785506474344,0.8565789473684211,0.8525566725018259,1.0,0.9044117647058824,0.3699954795209985,0.9,6.016508299995621
78,0.00031741378447004763,0.6057851153070276,0.9627272727272728,0.4001868407977255,0.8802631578947369,0.8801096111676096,1.0,0.9176470588235294,0.3684957400748604,0.8986842105263158,6.016307500001858
79,0.00031065172774871004,0.6466483130238273,0.9382954545454546,0.362963667041377,0.9039473684210526,0.9040199621638945,1.0,0.9455882352941176,0.3667313023617393,0.8973684210526316,6.0148938999991515
80,0.00030388448551565744,0.6791866013136777,0.9296590909090909,0.47194583290501646,0.8486842105263158,0.8433773093502694,1.0,0.8941176470588236,0.36747295950588427,0.9,6.012570999999298
81,0.0002971155144843426,0.6402972865104676,0.9443181818181818,0.43841062784194945,0.8578947368421053,0.857300033725321,1.0,0.913235294117647,0.3675186166637822,0.9013157894736842,5.998103699996136
82,0.0002903482722512899,0.6910506123846227,0.935,0.4152535689504523,0.8881578947368421,0.8884186431315415,1.0,0.9294117647058824,0.36874662669081437,0.9013157894736842,6.0335777000000235
83,0.0002835862155299524,0.624121837941083,0.9494318181818182,0.4211247488072044,0.8855263157894737,0.8855895587717741,1.0,0.9367647058823529,0.36883364162947,0.8986842105263158,5.992770599994401
84,0.00027683279838501855,0.6121709962324663,0.9538636363636364,0.40425342666475395,0.8828947368421053,0.882650446210732,1.0,0.9191176470588235,0.3679089204261177,0.8986842105263158,6.013417699999991
85,0.00027009147046807365,0.6672113427248868,0.9334090909090909,0.39972598458591263,0.8842105263157894,0.8840970359030745,1.0,0.9352941176470588,0.3667029534515582,0.9026315789473685,5.995665899994492
86,0.0002633656752555145,0.6277679979801178,0.94875,0.36733069074781316,0.8973684210526316,0.897086928371851,1.0,0.9544117647058824,0.36405615555612664,0.9078947368421053,5.988914900000964
87,0.00025665884828961807,0.6471345569870689,0.9548863636363636,0.3901542666711305,0.8842105263157894,0.8846554855168426,1.0,0.9441176470588235,0.3647332047161303,0.9052631578947369,6.008717200005776
88,0.00024997441542366436,0.6468487232381648,0.9459090909090909,0.42307634855571546,0.8789473684210526,0.8789937993755649,1.0,0.9323529411764706,0.3645103856136924,0.9039473684210526,6.0071695000006
89,0.00024331579107200632,0.630472621050748,0.9481818181818182,0.4300250398485284,0.8697368421052631,0.8697509404463869,1.0,0.913235294117647,0.3663772175186559,0.9026315789473685,5.9894736999995075
90,0.0002366863764659847,0.6410575918717818,0.9409090909090909,0.4103197998122165,0.8736842105263158,0.8740561238157382,1.0,0.9294117647058824,0.3659074074343631,0.8986842105263158,6.051764600000752
91,0.0002300895579165759,0.6515268891507929,0.9360227272727273,0.384245943395715,0.8986842105263158,0.8983125753142186,1.0,0.9426470588235294,0.3648304584779237,0.9,6.0092931000035605
92,0.0002235287050846607,0.6417177087610418,0.9488636363636364,0.4033479389391447,0.8855263157894737,0.8858420044617181,1.0,0.9235294117647059,0.36497854966866344,0.9039473684210526,6.00240529999428
93,0.00021700716925979942,0.6049229001998901,0.9723863636363637,0.3653709411621094,0.881578947368421,0.8800415433766524,1.0,0.9397058823529412,0.3630635719550283,0.9052631578947369,5.986571100002038
94,0.00021052828164838913,0.6607213656468824,0.9334090909090909,0.43364964535361844,0.875,0.8764623828032496,1.0,0.9264705882352942,0.365468556629984,0.9,6.006783700002416
95,0.00020409535167208103,0.6135116776553067,0.9629545454545455,0.3653448007608715,0.8934210526315789,0.8934258833786319,1.0,0.9470588235294117,0.36653072959498356,0.9052631578947369,6.007947500002047
96,0.00019771166527732506,0.5949236286770214,0.9672727272727273,0.3916857267680921,0.8828947368421053,0.8833478440904354,1.0,0.9382352941176471,0.36541519227780794,0.9,6.031828999999561
97,0.00019138048325690465,0.6073232460021972,0.9569318181818182,0.36050487317537006,0.8947368421052632,0.8948839650319753,1.0,0.9485294117647058,0.3634939498022983,0.8973684210526316,6.017941099999007
98,0.00018510503958432174,0.6340332705324346,0.9517045454545454,0.3922893320259295,0.8894736842105263,0.88955357128885,1.0,0.9308823529411765,0.36474822257694445,0.8973684210526316,6.023732499998005
99,0.0001788885397618797,0.6273860402540727,0.9611363636363637,0.3913856095389316,0.8986842105263158,0.8987575728002332,1.0,0.9455882352941176,0.3650746386302145,0.8973684210526316,6.020054000000528
100,0.00017273415918330973,0.5760102940689433,0.9713636363636363,0.364762556552887,0.8960526315789473,0.8961179335454528,1.0,0.9529411764705882,0.36444111936970763,0.8960526315789473,5.993342099995061
101,0.00016664504151177735,0.6420551579648798,0.9485227272727272,0.3833922941433756,0.8855263157894737,0.885660004487591,1.0,0.9397058823529412,0.36581252280034515,0.8960526315789473,6.002393000002485
102,0.00016062429707409598,0.587962438843467,0.9680681818181818,0.4010654647099344,0.8828947368421053,0.8826296256127872,1.0,0.9382352941176471,0.36640580861192,0.9,5.998974800000724
103,0.00015467500127196946,0.5997095549106598,0.9573863636363636,0.37202453676022984,0.8934210526315789,0.8934059887387708,1.0,0.9397058823529412,0.3665964226973684,0.9,5.988905199999863
104,0.0001488001930110739,0.5808641318841414,0.9686363636363636,0.3781922591359992,0.8881578947368421,0.8881800064615565,1.0,0.9426470588235294,0.36466237118369654,0.8986842105263158,5.977277600002708
105,0.00014300287314878202,0.6416564103690061,0.9538636363636364,0.37852220943099574,0.8934210526315789,0.8936223688641294,1.0,0.95,0.36407542981599506,0.9039473684210526,6.031630999998015
106,0.00013728600296132235,0.6013847382502122,0.95375,0.39053810458434257,0.8776315789473684,0.8780024359785006,1.0,0.9411764705882353,0.3626826242396706,0.9078947368421053,6.005214900003921
107,0.00013165250263115694,0.6042761876366355,0.9497727272727273,0.3658099924263201,0.8973684210526316,0.8969907373036129,1.0,0.95,0.36316660830849096,0.9039473684210526,6.052247299994633
108,0.0001261052497553492,0.574641226421703,0.9720454545454545,0.3848699466178292,0.9039473684210526,0.903913411637826,1.0,0.9514705882352941,0.3629745081851357,0.9026315789473685,5.999603199998091
109,0.0001206470778756849,0.5937697304378856,0.9652272727272727,0.403938815468236,0.8842105263157894,0.8824467894131122,1.0,0.9323529411764706,0.36293993529520535,0.9039473684210526,5.995003900003212
110,0.0001152807750312964,0.6167145668376576,0.9557954545454546,0.3912470764235446,0.8828947368421053,0.8819531255201758,1.0,0.9382352941176471,0.3647200339718869,0.9013157894736842,6.00350520000211
111,0.00011000908233452982,0.6097424759648064,0.9539772727272727,0.36003072606889824,0.8986842105263158,0.8983803495012657,1.0,0.9470588235294117,0.36514486921461003,0.8986842105263158,6.018481399994926
112,0.00010483469257078224,0.6204060079834678,0.96,0.38271476312687525,0.8881578947368421,0.8878246800839051,1.0,0.9455882352941176,0.36571683287620543,0.8960526315789473,6.034506700001657
113,9.976024882302456e-05,0.5873541911081834,0.9646590909090909,0.3734411139237253,0.8907894736842106,0.8905875407073449,1.0,0.9441176470588235,0.36591214663104005,0.8973684210526316,6.02574160000222
114,9.478834312171236e-05,0.6187307366457853,0.9570454545454545,0.38746233551125775,0.881578947368421,0.881505422332211,1.0,0.9485294117647058,0.36718553273301374,0.8986842105263158,6.002338099999179
115,8.992151512077429e-05,0.5976282065564936,0.9593181818181818,0.3738317398648513,0.8973684210526316,0.8970203941508842,1.0,0.95,0.3674497905530428,0.9013157894736842,5.986318299997947
116,8.516225080035476e-05,0.6334790360927581,0.9484090909090909,0.3904206928453947,0.8947368421052632,0.8940435637122967,1.0,0.9397058823529412,0.37009052383272273,0.8986842105263158,6.015823999994609
117,8.051298119697266e-05,0.5966257086667147,0.9627272727272728,0.3949699797128376,0.8789473684210526,0.879123634236997,1.0,0.9279411764705883,0.3715639613176647,0.8934210526315789,6.024189099996875
118,7.597608116174637e-05,0.6065908009355718,0.9564772727272727,0.3819512624489634,0.8907894736842106,0.8906758765972388,1.0,0.9441176470588235,0.3720100801242025,0.8960526315789473,6.0258560000002035
119,7.155386814731662e-05,0.596940237825567,0.9654545454545455,0.3877950561674018,0.8828947368421053,0.8824025208629964,1.0,0.9308823529411765,0.373868601573141,0.8921052631578947,6.019347599998582
120,6.724860102409081e-05,0.6106414157694037,0.9645454545454546,0.3835427535207648,0.9013157894736842,0.9011371538500249,1.0,0.95,0.37407330933370087,0.8947368421052632,6.012704799999483
121,6.306247892640888e-05,0.5916664470325816,0.9645454545454546,0.4030626792656748,0.8855263157894737,0.8855562163532193,1.0,0.9352941176470588,0.3751347585728294,0.8934210526315789,6.029600300003949
122,5.899764012922409e-05,0.5744792912223122,0.9681818181818181,0.3659671585810812,0.9,0.8999582126828096,1.0,0.9485294117647058,0.3749865080180921,0.8947368421052632,6.004417100004503
123,5.5056160955870474e-05,0.5797417894276705,0.9654545454545455,0.35367142589468703,0.9,0.9002154331608544,1.0,0.9470588235294117,0.3739666596839302,0.8947368421052632,6.006864599999972
124,5.1240054717474066e-05,0.5974341943047263,0.9667045454545454,0.427183452091719,0.8710526315789474,0.8710570359744414,1.0,0.9191176470588235,0.3740407043381741,0.8960526315789473,5.998741399998835
125,4.755127068455278e-05,0.5906546425819397,0.9582954545454545,0.38979492156129136,0.8894736842105263,0.889296637869444,1.0,0.9397058823529412,0.374526657242524,0.8947368421052632,5.999770800000988
126,4.399169309132677e-05,0.6304179479859092,0.9586363636363636,0.39673590503240885,0.8855263157894737,0.8861022798704473,1.0,0.9367647058823529,0.3758153021335602,0.8934210526315789,6.006404700005078
127,4.0563140173249585e-05,0.6237870173020796,0.9556818181818182,0.39325168038669384,0.8789473684210526,0.8792034521385649,1.0,0.9367647058823529,0.37649375513980265,0.8934210526315789,6.001562200006447
128,3.726736323825278e-05,0.6123002687367526,0.9642045454545455,0.3884206677737989,0.8868421052631579,0.8872928648710827,1.0,0.9397058823529412,0.3776355147361755,0.8907894736842106,6.015630099995178
129,3.41060457721751e-05,0.6073761257258329,0.9632954545454545,0.37309899643847816,0.8973684210526316,0.8973577833824962,1.0,0.9455882352941176,0.37795129010551853,0.8947368421052632,6.034269399999175
130,3.1080802578837415e-05,0.5764893245697021,0.9694318181818182,0.37137387018454704,0.8960526315789473,0.8959068517011541,1.0,0.9367647058823529,0.3776155167504361,0.8960526315789473,6.006436299998313
131,2.8193178955198895e-05,0.6016685165058483,0.9573863636363636,0.3776604906508797,0.8907894736842106,0.891128371139367,1.0,0.9426470588235294,0.3790195665861431,0.8921052631578947,6.003677900000184
132,2.544464990201774e-05,0.5493702337958596,0.9769318181818182,0.4040103720991235,0.875,0.8750902116762932,1.0,0.9308823529411765,0.37930795864055034,0.8921052631578947,6.023746699996991
133,2.283661937042025e-05,0.6020781430331144,0.9635227272727273,0.40984601535295184,0.8789473684210526,0.8790779908475358,1.0,0.9264705882352942,0.381252248036234,0.8907894736842106,5.993377599996165
134,2.0370419544760518e-05,0.573870011026209,0.965,0.3883509592006081,0.8855263157894737,0.8857505224674215,1.0,0.9382352941176471,0.38066281864517615,0.8907894736842106,6.014075500002946
135,1.804731016213988e-05,0.6024034900015051,0.9551136363636363,0.3904920872889067,0.8802631578947369,0.8805581159049789,1.0,0.9382352941176471,0.38114391220243354,0.8907894736842106,5.9868465999970795
136,1.5868477868931964e-05,0.6185904054208236,0.9532954545454545,0.414743845713766,0.875,0.8755204645923271,1.0,0.9308823529411765,0.3819072522615132,0.8907894736842106,6.030228200004785
137,1.3835035614642541e-05,0.5766846882213246,0.9622727272727273,0.3933489341484873,0.8789473684210526,0.879509495517454,1.0,0.9338235294117647,0.38274857276364377,0.8894736842105263,6.000779699999839
138,1.1948022083414199e-05,0.6058431267738342,0.9604545454545454,0.38732882079325226,0.8842105263157894,0.8839348181034008,1.0,0.9441176470588235,0.38417109407876665,0.8868421052631579,6.03851289999875
139,1.0208401163465185e-05,0.6389932052655654,0.9469318181818182,0.38900997858298453,0.8789473684210526,0.8788475148539323,1.0,0.9367647058823529,0.38619312424408764,0.8868421052631579,5.988784599998326
140,8.617061454734755e-06,0.614947021224282,0.9627272727272728,0.3981976967108877,0.881578947368421,0.8821457579041864,1.0,0.9308823529411765,0.3871627007660113,0.8868421052631579,6.004900400002953
141,7.1748158149852224e-06,0.6496827629479495,0.9494318181818182,0.38663073182106017,0.8802631578947369,0.8809775351638137,1.0,0.9352941176470588,0.38926584406902914,0.8868421052631579,6.124884799995925
142,5.882400944593751e-06,0.636953657540408,0.9584090909090909,0.3791201149162493,0.8868421052631579,0.8872331496980586,1.0,0.9397058823529412,0.3900707853467841,0.8868421052631579,6.042383299994981
143,4.740477010244959e-06,0.5820989394187928,0.9622727272727273,0.3995145295795641,0.8789473684210526,0.8789970739272954,1.0,0.9382352941176471,0.3895496559770484,0.8855263157894737,6.004914500001178
144,3.7496273077172435e-06,0.6089305238290267,0.9453409090909091,0.3921805121396717,0.8881578947368421,0.8881430183939075,1.0,0.9441176470588235,0.39020144813939145,0.8842105263157894,6.001102100002754
145,2.9103579639347222e-06,0.618032356934114,0.9651136363636363,0.3839400451434286,0.8907894736842106,0.8909351824906802,1.0,0.9382352941176471,0.3904544221727472,0.8842105263157894,6.00037500000326
146,2.223097678437247e-06,0.565482338775288,0.9669318181818182,0.3958927352177469,0.8828947368421053,0.8828150082298893,1.0,0.9367647058823529,0.38907583199049295,0.8855263157894737,6.0083587000044645
147,1.6881975044002091e-06,0.626470918005163,0.954659090909091,0.3597538991978294,0.9026315789473685,0.9023706742582822,1.0,0.9426470588235294,0.38972457082648027,0.8855263157894737,5.9896802000002936
148,1.3059306693162125e-06,0.6251993109963156,0.9539772727272727,0.406511327153758,0.875,0.8759379161821534,1.0,0.9308823529411765,0.38938743095648914,0.8868421052631579,6.00014899999951
149,1.0764924354303636e-06,0.6100523747097362,0.9576136363636364,0.3885200095804114,0.8842105263157894,0.8848796204794158,1.0,0.9308823529411765,0.38978102803230286,0.8855263157894737,6.033263000004808
150,1e-06,0.6130703243342313,0.9661363636363637,0.3951375851505681,0.8842105263157894,0.8845585626937378,1.0,0.9367647058823529,0.38968650384953146,0.8868421052631579,6.005608800005575
