epoch,lr,train_loss,train_accuracy,val_loss,val_accuracy,val_macro_f1,val_trial_accuracy,val_k3,ema_loss,ema_accuracy,seconds
1,5.9999999999999995e-05,1.301265580003912,0.5280681818181818,0.9509749186666389,0.6092105263157894,0.5939900748851112,0.525,0.611764705882353,1.6080245168585525,0.2118421052631579,20.687070799998764
2,0.00011999999999999999,1.0956286868182095,0.6615909090909091,0.5912692628408733,0.8039473684210526,0.801330008095784,1.0,0.8764705882352941,1.6083123483155903,0.23289473684210527,20.555416700000933
3,0.00018,1.0735700724341652,0.7019318181818182,0.5869457640145954,0.7986842105263158,0.7871436179484156,0.95,0.8529411764705882,1.6149735337809512,0.2,20.521576999999525
4,0.00023999999999999998,0.9911301270398226,0.7561363636363636,0.46984070100282366,0.8381578947368421,0.8392014801790184,1.0,0.9058823529411765,1.6369281931927329,0.2,20.51865700000053
5,0.0003,0.9349337731708179,0.7880681818181818,0.48575862081427323,0.8328947368421052,0.8309462331315194,0.925,0.875,1.6902298776726974,0.2,20.537767499998154
6,0.00035999999999999997,0.8865516883676703,0.8067045454545455,0.3862427661293431,0.868421052631579,0.8698192365948426,0.975,0.9205882352941176,1.77673660955931,0.2,20.523314899997786
7,0.00042,0.9092774577574296,0.8011363636363636,0.4965873925309432,0.8355263157894737,0.8316588299313967,0.975,0.8735294117647059,1.9591841848273026,0.2,20.52943039999809
8,0.0004799999999999999,0.8498179084604437,0.8276136363636364,0.3836015299746865,0.8736842105263158,0.8744618441053458,1.0,0.9220588235294118,2.2411309490078373,0.2,20.481014499993762
9,0.00054,0.8371625503626736,0.8355681818181818,0.5012960120251304,0.8276315789473684,0.8147065086741956,0.95,0.8588235294117647,2.571776058799342,0.2,20.54481370000576
10,0.0005999999999999998,0.8574582845514471,0.8231818181818182,0.4157796144485474,0.8868421052631579,0.8860431731418348,1.0,0.9191176470588235,2.8864549332543423,0.2,20.570351200003643
11,0.0006,0.8447319230166348,0.8381818181818181,0.33585783368662786,0.8973684210526316,0.8974165607067015,1.0,0.9485294117647058,3.116214712277839,0.2,20.56639250000444
12,0.0005999235075645696,0.8158578543229537,0.8504545454545455,0.45864589182954085,0.8592105263157894,0.8555945807364193,0.975,0.8985294117647059,3.3606587457813712,0.2,20.536667499996838
13,0.0005996940693306837,0.8011316899819808,0.8565909090909091,0.43620260232373287,0.8723684210526316,0.8767633026783634,0.975,0.9205882352941176,3.539475611675727,0.2,20.564172799997323
14,0.0005993118024955998,0.7953567203608426,0.8644318181818181,0.5608192647758283,0.8210526315789474,0.8142101010244378,0.975,0.8647058823529412,3.616495855231034,0.2,20.539050700004736
15,0.0005987769023215627,0.7856796856360002,0.8639772727272728,0.5050374231840434,0.8473684210526315,0.848213643401361,1.0,0.8838235294117647,3.6421754736257226,0.2,20.530156900000293
16,0.0005980896420360653,0.7639939800175753,0.8781818181818182,0.4422636744223143,0.8736842105263158,0.8707049369781055,1.0,0.9014705882352941,3.5736384141602016,0.2,20.52649720000045
17,0.0005972503726922827,0.8040783108364452,0.8714772727272727,0.36445629596710205,0.8934210526315789,0.8932376456671092,1.0,0.9352941176470588,3.4287229839516313,0.2,20.54675720000523
18,0.0005962595229897549,0.7652796030044555,0.8802272727272727,0.44351214735131517,0.8671052631578947,0.8637713297311261,1.0,0.9,3.2396461085661463,0.2026315789473684,20.548609299999953
19,0.0005951175990554061,0.74690424897454,0.8938636363636364,0.39846287965774535,0.8828947368421053,0.8824947927800235,1.0,0.9279411764705883,2.9930973052194245,0.21052631578947367,20.471798700004
20,0.0005938251841850148,0.7463927439126101,0.8965909090909091,0.4804766385178817,0.8460526315789474,0.8467540265626445,1.0,0.9029411764705882,2.563829401880503,0.23421052631578948,20.542999699995562
21,0.0005923829385452652,0.7413356416875666,0.8993181818181818,0.44050096179309645,0.8736842105263158,0.873778286447841,1.0,0.9161764705882353,2.121911199469315,0.3013157894736842,20.553092900001502
22,0.0005907915988365347,0.726932858987288,0.8984090909090909,0.40839952042228295,0.8710526315789474,0.8717174981337367,1.0,0.9235294117647059,1.7137752733732525,0.39210526315789473,20.5308578999975
23,0.0005890519779165858,0.6920167003978382,0.9035227272727273,0.47167199881453264,0.85,0.8491041190475184,1.0,0.8838235294117647,1.297119642715705,0.5078947368421053,20.551662300000316
24,0.0005871649643853574,0.7165276256474582,0.9042045454545454,0.4225652599021008,0.8486842105263158,0.8512937767645792,1.0,0.9161764705882353,0.9170846235595251,0.65,20.561043900001096
25,0.000585131522131068,0.6615229190479626,0.920340909090909,0.46274809649116116,0.8605263157894737,0.8613321457198753,1.0,0.9029411764705882,0.6958235894378862,0.7552631578947369,20.545724399999017
26,0.0005829526898378601,0.6875227515263991,0.9186363636363636,0.4496402141294981,0.868421052631579,0.86191229172271,0.95,0.9044117647058824,0.5597493226590909,0.7973684210526316,20.58224550000159
27,0.0005806295804552395,0.7068371510505677,0.9023863636363636,0.39788558451752915,0.8855263157894737,0.8862649491494885,1.0,0.9441176470588235,0.47008783472211735,0.85,20.568636900003185
28,0.0005781633806295796,0.7045498245412654,0.90875,0.36509369360773186,0.8973684210526316,0.8979453319822136,1.0,0.9411764705882353,0.41704310461094507,0.8723684210526316,20.5635392999975
29,0.0005755553500979822,0.6776152491569519,0.9205681818181818,0.34936763299138923,0.9052631578947369,0.9050013921732658,1.0,0.9411764705882353,0.37354607738946616,0.8881578947368421,20.53228769999987
30,0.0005728068210448012,0.6899085482684049,0.9220454545454545,0.3730764285514229,0.9039473684210526,0.9038234553638167,1.0,0.9382352941176471,0.34678380928541486,0.9,20.571802699996624
31,0.0005699191974211625,0.7070619796622883,0.9102272727272728,0.33692849811754727,0.9105263157894737,0.9107266608607769,1.0,0.9470588235294117,0.33434986378017223,0.906578947368421,20.541010599998117
32,0.0005668939542278249,0.6958118666302074,0.9122727272727272,0.43668935612628335,0.8526315789473684,0.8518034737944167,1.0,0.9279411764705883,0.3243263639901814,0.9131578947368421,20.546250299994426
33,0.0005637326367617472,0.6883470695669001,0.9231818181818182,0.46041938568416396,0.8605263157894737,0.8582812842860703,1.0,0.8941176470588236,0.3181272798462918,0.9210526315789473,20.55856259999564
34,0.0005604368598267504,0.6830765317786823,0.9165909090909091,0.35740047316802176,0.8960526315789473,0.8957732180886702,1.0,0.9397058823529412,0.3146690374926517,0.9184210526315789,20.547074399997655
35,0.0005570083069086733,0.650867792042819,0.9296590909090909,0.36935253958953057,0.8868421052631579,0.8866929283505243,1.0,0.9294117647058824,0.31249233076446936,0.9236842105263158,20.662474299999303
36,0.0005534487293154471,0.6975245107303966,0.9202272727272728,0.42031030968615885,0.8789473684210526,0.8781424312585836,1.0,0.9235294117647059,0.3139452485661758,0.9210526315789473,20.561314999999013
37,0.0005497599452825259,0.6775777697563171,0.9218181818181819,0.38816753312161095,0.9,0.8997057398488917,0.975,0.9382352941176471,0.3158465338380713,0.9210526315789473,20.533237399999052
38,0.0005459438390441295,0.6475893978639082,0.9381818181818182,0.4383883426063939,0.8671052631578947,0.8663387895236319,1.0,0.9161764705882353,0.31636557359444467,0.9223684210526316,20.5252532999948
39,0.0005420023598707758,0.6567500483989716,0.9314772727272728,0.4251489347533176,0.8644736842105263,0.8653097851172833,1.0,0.9147058823529411,0.3156586891726444,0.925,20.512436800003343
40,0.0005379375210735911,0.6492252497239547,0.9275,0.48931334771608054,0.8460526315789474,0.8406258103618572,0.975,0.8838235294117647,0.3155882985968339,0.9236842105263158,20.524515799996152
41,0.0005337513989759092,0.6895079565048218,0.925340909090909,0.4795045551500822,0.8565789473684211,0.8561816834358573,1.0,0.9029411764705882,0.31770481279021817,0.9210526315789473,20.541012599998794
42,0.0005294461318526833,0.6689067654176192,0.93125,0.4092395978538614,0.868421052631579,0.8678446913355975,1.0,0.9044117647058824,0.31818815501112685,0.9197368421052632,20.565542299998924
43,0.0005250239188382536,0.6537407612800599,0.93125,0.516342966336953,0.8263157894736842,0.8289793289191099,0.975,0.8691176470588236,0.3199335198653372,0.9223684210526316,20.548285700002452
44,0.0005204870188030272,0.6900968345728787,0.9240909090909091,0.4808941489771793,0.8539473684210527,0.8473899134009173,1.0,0.8911764705882353,0.32205967087494697,0.9184210526315789,20.528270800001337
45,0.0005158377491996452,0.6880571241812272,0.9257954545454545,0.40840494287641427,0.8710526315789474,0.8699083812522233,1.0,0.9264705882352942,0.32560681732077346,0.9171052631578948,20.56914599999436
46,0.0005110784848792257,0.6305266287110068,0.93875,0.5041704686064469,0.8447368421052631,0.8425229522412874,0.975,0.8867647058823529,0.3264339236836684,0.9118421052631579,20.552633599996625
47,0.0005062116568782877,0.6857767100767655,0.9289772727272727,0.3941595366126613,0.8855263157894737,0.8854719171640875,1.0,0.9294117647058824,0.32810347644906296,0.9078947368421053,20.530474599996523
48,0.0005012397511769754,0.6262249910831451,0.944659090909091,0.42656776026675575,0.8723684210526316,0.8719510455812628,1.0,0.9205882352941176,0.3301329769586262,0.9078947368421053,20.53084200000012
49,0.0004961653074292177,0.6512512213533574,0.9354545454545454,0.41835576233110927,0.881578947368421,0.8812236179042336,1.0,0.9294117647058824,0.33077826217601175,0.9105263157894737,20.52792259999842
50,0.0004909909176654702,0.6400693479451266,0.9369318181818181,0.42953527412916487,0.8644736842105263,0.8651333081428436,1.0,0.9279411764705883,0.3289126345985814,0.9131578947368421,20.537363900002674
51,0.00048571922496870357,0.6506235794587569,0.9406818181818182,0.46599392200771134,0.8592105263157894,0.8569153126878015,1.0,0.9029411764705882,0.33023408651351926,0.9118421052631579,20.553025300003355
52,0.00048035292212431514,0.6403298833153465,0.9463636363636364,0.41155608296394347,0.8855263157894737,0.88415116644041,1.0,0.9323529411764706,0.32845944950455114,0.9131578947368421,20.53851720000239
53,0.0004748947502446508,0.667918103391474,0.9361363636363637,0.46809531826721995,0.8552631578947368,0.8543426412973194,1.0,0.9029411764705882,0.3292392134666443,0.9157894736842105,20.539779700004146
54,0.00046934749736884306,0.6561392990025607,0.9338636363636363,0.40808727960837515,0.8842105263157894,0.8816914872356438,1.0,0.9191176470588235,0.3322488888313896,0.9144736842105263,20.56617620000179
55,0.0004637139970386777,0.6604804439978166,0.9420454545454545,0.46534046342498375,0.8605263157894737,0.8599746461201452,0.975,0.9044117647058824,0.3355664300291162,0.9118421052631579,20.547139399997832
56,0.000457997126851218,0.6120333886146545,0.9610227272727273,0.42446610425647935,0.8671052631578947,0.8677673753966078,0.975,0.9058823529411765,0.3380557010048314,0.9092105263157895,20.565165199994226
57,0.00045219980698892607,0.6130837314779108,0.9536363636363636,0.3686816165321752,0.8947368421052632,0.893689451835758,1.0,0.9338235294117647,0.3384281365494979,0.9026315789473685,20.557718600000953
58,0.0004463249987280305,0.6787389533086257,0.9343181818181818,0.4310487041347905,0.875,0.8740738839735898,1.0,0.9176470588235294,0.3365009505497782,0.9078947368421053,20.58547840000392
59,0.000440375702925904,0.6176365845853632,0.946590909090909,0.3872470636116831,0.881578947368421,0.8823683761951676,1.0,0.9279411764705883,0.33573941651143524,0.9092105263157895,20.551817699997628
60,0.0004343549584882226,0.6251022008332339,0.9413636363636364,0.3686203410750941,0.8894736842105263,0.889333786716821,1.0,0.9323529411764706,0.3352428229231583,0.9078947368421053,20.553391200002807
61,0.00042826584081669025,0.6288114086064426,0.9471590909090909,0.372990819341258,0.8855263157894737,0.885465320135722,1.0,0.9205882352941176,0.3335363689221834,0.9078947368421053,20.56441469999845
62,0.00042211146023812037,0.604030143997886,0.9444318181818182,0.3907623698836879,0.881578947368421,0.8818517633313256,1.0,0.9338235294117647,0.33266806320140235,0.9078947368421053,20.503362199997355
63,0.0004158949604156783,0.652559361891313,0.9297727272727273,0.4350372308178952,0.8736842105263158,0.8732077756166291,1.0,0.9235294117647059,0.3344835786443008,0.9078947368421053,20.565931700002693
64,0.0004096195167430953,0.638044413653287,0.944659090909091,0.39804438540810033,0.8763157894736842,0.8753402223727518,1.0,0.9205882352941176,0.33842685065771405,0.906578947368421,20.558719000000565
65,0.0004032883347226749,0.6339315141331066,0.9421590909090909,0.41983241125157006,0.8776315789473684,0.875050376630446,1.0,0.9102941176470588,0.34119696303417807,0.9092105263157895,20.521797300003527
66,0.0003969046483279189,0.6504199038852345,0.9442045454545455,0.4104520691068549,0.875,0.8740511932851541,0.975,0.9176470588235294,0.34234225655856887,0.906578947368421,20.51397580000048
67,0.0003904717183516109,0.6406024029038169,0.9370454545454545,0.4020978020994287,0.8697368421052631,0.870810513574888,1.0,0.9117647058823529,0.3411323550500368,0.906578947368421,20.556554399998276
68,0.0003839928307402005,0.6536140710657293,0.9463636363636364,0.37841367156882033,0.8842105263157894,0.8845179882506928,1.0,0.9220588235294118,0.34251419870476973,0.9092105263157895,20.55686810000043
69,0.00037747129491533916,0.6092388678680767,0.9593181818181818,0.47210203409194945,0.8578947368421053,0.8550701264640601,1.0,0.9044117647058824,0.34506868155379045,0.9078947368421053,20.576905300004
70,0.0003709104420834241,0.6198798153617165,0.9568181818181818,0.4322273244983272,0.8697368421052631,0.8678828871135005,1.0,0.9220588235294118,0.34908515528628703,0.9078947368421053,20.578623399997014
71,0.00036431362353401533,0.6305342724106529,0.9475,0.41344307315976997,0.875,0.8752684047736832,1.0,0.9191176470588235,0.34907973408699033,0.9078947368421053,20.591946599997755
72,0.0003576842089279937,0.6426450859416615,0.9389772727272727,0.3987611478880832,0.8907894736842106,0.8893672871532182,1.0,0.9235294117647059,0.3520407425729852,0.9052631578947369,20.607775600001332
73,0.0003510255845763356,0.6002434821562334,0.9577272727272728,0.4341853894685444,0.8842105263157894,0.8832590734269374,1.0,0.925,0.3551234593516902,0.9039473684210526,20.555803299997933
74,0.0003443411517103819,0.6358590453321283,0.9463636363636364,0.3815960150015982,0.881578947368421,0.881273398924318,1.0,0.9279411764705883,0.359092873021176,0.8986842105263158,20.52924950000306
75,0.0003376343247444856,0.5910798226703297,0.9617045454545454,0.4662736183718631,0.8605263157894737,0.8577584421724082,1.0,0.8941176470588236,0.360943562419791,0.9026315789473685,20.523194200002763
76,0.0003309085295319264,0.6450898991931568,0.9454545454545454,0.4672878055196059,0.8657894736842106,0.8649585595597454,1.0,0.8897058823529411,0.36279248720721197,0.9013157894736842,20.575228400004562
77,0.0003241672016149815,0.5821001778949391,0.9692045454545455,0.418130372072521,0.8631578947368421,0.863166820510879,1.0,0.913235294117647,0.36069392216833013,0.8986842105263158,20.57510259999981
78,0.00031741378447004763,0.6325033769824288,0.9489772727272727,0.38558618645918996,0.8907894736842106,0.8903406466849997,1.0,0.925,0.3622304806583806,0.9,20.57866720000311
79,0.00031065172774871004,0.589059495492415,0.9602272727272727,0.40313672611587925,0.8723684210526316,0.8722806978944357,1.0,0.9191176470588235,0.362672463843697,0.8986842105263158,20.54978409999603
80,0.00030388448551565744,0.6166510631821372,0.9586363636363636,0.4431034684181213,0.8671052631578947,0.8645640643315982,0.975,0.8955882352941177,0.36413694682874176,0.8947368421052632,20.55491030000121
81,0.0002971155144843426,0.602644492929632,0.9494318181818182,0.45662576869914406,0.8631578947368421,0.8613661714952204,1.0,0.9088235294117647,0.36482335203572325,0.8934210526315789,20.511092599997937
82,0.0002903482722512899,0.6274024837667291,0.9571590909090909,0.4520444377472526,0.8697368421052631,0.8676863086148492,1.0,0.8926470588235295,0.36517133116722106,0.8934210526315789,20.54219110000122
83,0.0002835862155299524,0.5845799946784973,0.9654545454545455,0.4389533601309124,0.8605263157894737,0.8578687905649991,1.0,0.9029411764705882,0.3632752261663738,0.8973684210526316,20.523712700000033
84,0.00027683279838501855,0.5856143439899791,0.9661363636363637,0.41368327893708884,0.8710526315789474,0.870125219935591,0.975,0.9176470588235294,0.36145123870749224,0.8960526315789473,20.579280400001153
85,0.00027009147046807365,0.6062037864598361,0.9495454545454546,0.4355077238459336,0.8657894736842106,0.8651785413073529,1.0,0.9058823529411765,0.36101796940753333,0.8986842105263158,20.531998600003135
86,0.0002633656752555145,0.6378412932699377,0.9438636363636363,0.4088973202203449,0.8894736842105263,0.8876890143934085,1.0,0.9176470588235294,0.3591931794819079,0.8986842105263158,20.508218900002248
87,0.00025665884828961807,0.5694920002330434,0.9697727272727272,0.41760486803556746,0.8736842105263158,0.87279642073605,1.0,0.925,0.358573191416891,0.9013157894736842,20.4922493999984
88,0.00024997441542366436,0.6171111930500377,0.9643181818181819,0.4497511217468663,0.8644736842105263,0.8647944821577582,1.0,0.9058823529411765,0.358933699131012,0.9026315789473685,20.544359899999108
89,0.00024331579107200632,0.6004178361459211,0.9635227272727273,0.4354098272951026,0.8671052631578947,0.8668111008826083,1.0,0.9014705882352941,0.3605761079411758,0.9013157894736842,20.508647599999676
90,0.0002366863764659847,0.5757919433983889,0.9629545454545455,0.43578724076873376,0.868421052631579,0.8680134896379424,0.975,0.9147058823529411,0.359763134780683,0.9013157894736842,20.534769400001096
91,0.0002300895579165759,0.6172153423049234,0.959659090909091,0.43362715965823123,0.8644736842105263,0.8635473518642591,1.0,0.9102941176470588,0.36012252067264755,0.8986842105263158,20.566688899998553
92,0.0002235287050846607,0.5933737286654386,0.9671590909090909,0.4038043364098198,0.8776315789473684,0.877801021404246,1.0,0.9220588235294118,0.36113987878749243,0.8973684210526316,20.56996970000182
93,0.00021700716925979942,0.5730775825543837,0.9626136363636364,0.4291694245840374,0.8671052631578947,0.8660712871319607,0.975,0.9014705882352941,0.3617265409544895,0.8960526315789473,20.559130699999514
94,0.00021052828164838913,0.5883020795475353,0.9680681818181818,0.38264264621232685,0.8881578947368421,0.8878964989547405,1.0,0.9308823529411765,0.36295503283801833,0.9,20.548085499998706
95,0.00020409535167208103,0.6247756465998563,0.9484090909090909,0.39830081274634915,0.8828947368421053,0.8829691914742297,0.975,0.9161764705882353,0.3637978795327638,0.8986842105263158,20.510966599998937
96,0.00019771166527732506,0.6063970546288924,0.949659090909091,0.3875528429683886,0.8828947368421053,0.8827194726991585,1.0,0.9382352941176471,0.3635485191094248,0.9013157894736842,20.49378660000366
97,0.00019138048325690465,0.5604995900934393,0.9721590909090909,0.40251055140244335,0.8828947368421053,0.8819436219572643,1.0,0.9294117647058824,0.36163024996456344,0.9013157894736842,20.53658970000106
98,0.00018510503958432174,0.5873998572609641,0.9670454545454545,0.3867082288390712,0.8921052631578947,0.8916736313658264,1.0,0.925,0.36113755106925965,0.9013157894736842,20.514028900004632
99,0.0001788885397618797,0.5839195309985767,0.9740909090909091,0.40882190873748375,0.8802631578947369,0.8794707550222919,1.0,0.913235294117647,0.36111104927564924,0.9,20.540156399998523
100,0.00017273415918330973,0.6535168591412631,0.9435227272727272,0.43875049791837994,0.8789473684210526,0.8791379217975575,1.0,0.925,0.36258601044353683,0.8973684210526316,20.55000519999885
101,0.00016664504151177735,0.6079820615595037,0.9667045454545454,0.3997856152685065,0.881578947368421,0.8813655002615235,1.0,0.9308823529411765,0.367320652384507,0.8947368421052632,20.479917500000738
102,0.00016062429707409598,0.5978793466091156,0.9609090909090909,0.40862579408444855,0.8868421052631579,0.8860380403103971,1.0,0.9176470588235294,0.371330903392089,0.8960526315789473,20.54354880000028
103,0.00015467500127196946,0.6010263151472265,0.951590909090909,0.4198227741216358,0.875,0.874659184242824,1.0,0.913235294117647,0.3742856480573353,0.8934210526315789,20.538002699999197
104,0.0001488001930110739,0.5956471166827462,0.9701136363636363,0.3847053919967852,0.8921052631578947,0.891364764973223,1.0,0.9338235294117647,0.37658739686012266,0.8934210526315789,20.528349699998216
105,0.00014300287314878202,0.5951092938943343,0.9626136363636364,0.41598350186096994,0.8789473684210526,0.8764377518516857,1.0,0.9205882352941176,0.37778296219675167,0.8907894736842106,20.564892900001723
106,0.00013728600296132235,0.5684628210284494,0.9660227272727273,0.4127116557798888,0.8802631578947369,0.8792288889880584,1.0,0.9235294117647059,0.380486819304918,0.8921052631578947,20.524196200000006
107,0.00013165250263115694,0.5876433498209173,0.9580681818181818,0.42006201540168964,0.8776315789473684,0.8766339722571745,1.0,0.9205882352941176,0.38115716325609306,0.8934210526315789,20.576028399998904
108,0.0001261052497553492,0.6041187602823431,0.9621590909090909,0.3945601607623853,0.8973684210526316,0.8968711219876789,1.0,0.9220588235294118,0.3830352792614385,0.8921052631578947,20.564727999997558
109,0.0001206470778756849,0.6166156231273304,0.9610227272727273,0.4140335892376147,0.8868421052631579,0.8850437018270357,1.0,0.9147058823529411,0.38414965177837174,0.8960526315789473,20.529896400003054
110,0.0001152807750312964,0.6435231976075606,0.9492045454545455,0.4295235081722862,0.8776315789473684,0.8770691971833889,1.0,0.9279411764705883,0.3856982591905092,0.8934210526315789,20.57477530000324
111,0.00011000908233452982,0.5832712294838646,0.9655681818181818,0.4082211955597526,0.8723684210526316,0.8711107544752419,1.0,0.9205882352941176,0.38639004261870136,0.8921052631578947,20.51859929999773
112,0.00010483469257078224,0.5795396731116554,0.9744318181818182,0.42879140753495065,0.8763157894736842,0.87533552079913,1.0,0.9073529411764706,0.38634852296427674,0.8921052631578947,20.510440000005474
113,9.976024882302456e-05,0.5710693019086664,0.9704545454545455,0.41479146825639823,0.8802631578947369,0.8788859264096824,1.0,0.925,0.3887217480885355,0.8894736842105263,20.564586500004225
114,9.478834312171236e-05,0.5865631391785362,0.97375,0.4350864604899758,0.8763157894736842,0.8751790345554242,0.975,0.9205882352941176,0.39060556574871663,0.8881578947368421,20.55517790000158
115,8.992151512077429e-05,0.5669122457504272,0.9735227272727273,0.39430244910089596,0.8894736842105263,0.8890471542184019,0.975,0.9279411764705883,0.39344859876130756,0.8881578947368421,20.550157300000137
116,8.516225080035476e-05,0.606784271326932,0.9639772727272727,0.40366965877382377,0.8868421052631579,0.8858147195594004,1.0,0.9279411764705883,0.3920011015314805,0.8907894736842106,20.57375239999965
117,8.051298119697266e-05,0.6061037039756775,0.9747727272727272,0.4205088558949922,0.8894736842105263,0.8882083188783216,1.0,0.925,0.39188521629885625,0.8894736842105263,20.56186770000204
118,7.597608116174637e-05,0.5832639967311513,0.9715909090909091,0.38460556739255003,0.8960526315789473,0.8956373401413698,1.0,0.9294117647058824,0.39118154425370066,0.8881578947368421,20.528303200000664
119,7.155386814731662e-05,0.5582887003638528,0.9779545454545454,0.3935170233249664,0.8934210526315789,0.8926856288562796,1.0,0.9279411764705883,0.3908024035002056,0.8881578947368421,20.545682999996643
120,6.724860102409081e-05,0.589430569301952,0.9690909090909091,0.4222574334395559,0.8881578947368421,0.8866491483451959,1.0,0.9235294117647059,0.3912493247734873,0.8907894736842106,20.583952000000863
121,6.306247892640888e-05,0.6060572268746116,0.9696590909090909,0.40866345825948214,0.8802631578947369,0.8799927316107728,1.0,0.9279411764705883,0.3905667753596055,0.8894736842105263,20.526901299999736
122,5.899764012922409e-05,0.5573508661443537,0.9686363636363636,0.38007724065529674,0.8921052631578947,0.8916431820192127,1.0,0.9308823529411765,0.3895223514029854,0.8894736842105263,20.55444759999955
123,5.5056160955870474e-05,0.5642237151752819,0.9718181818181818,0.399176507874539,0.8868421052631579,0.8866776177808132,1.0,0.9235294117647059,0.38940365502708835,0.8881578947368421,20.532622900005663
124,5.1240054717474066e-05,0.6242716960473494,0.9488636363636364,0.43397409539473686,0.8763157894736842,0.8755642987824597,1.0,0.9205882352941176,0.39101048488365975,0.8894736842105263,20.512998699996388
125,4.755127068455278e-05,0.6025827196511355,0.9573863636363636,0.38122486378017223,0.8960526315789473,0.8955366688168258,1.0,0.9323529411764706,0.39058950386549296,0.8894736842105263,20.554767500005255
126,4.399169309132677e-05,0.5968403896418485,0.9606818181818182,0.4194372086148513,0.8828947368421053,0.8819049849967893,1.0,0.9161764705882353,0.39150896511579814,0.8881578947368421,20.52263430000312
127,4.0563140173249585e-05,0.5764664327014576,0.9719318181818182,0.423637550755551,0.8763157894736842,0.8766277754697814,1.0,0.925,0.3921168274001071,0.8907894736842106,21.093276299994614
128,3.726736323825278e-05,0.6032977206056769,0.9653409090909091,0.4070829695776889,0.881578947368421,0.8807353633315804,1.0,0.9220588235294118,0.39411685247170297,0.8907894736842106,20.938682200001494
129,3.41060457721751e-05,0.5778516495227813,0.9638636363636364,0.4054522875108217,0.8802631578947369,0.8794239652570658,1.0,0.9176470588235294,0.3963840685392681,0.8881578947368421,21.016471099996124
130,3.1080802578837415e-05,0.5813903557170521,0.9655681818181818,0.39411926206789516,0.881578947368421,0.8804837694172558,1.0,0.9235294117647059,0.3978830444185357,0.8868421052631579,20.89420170000085
131,2.8193178955198895e-05,0.5832755866917697,0.9727272727272728,0.4138215720653534,0.8763157894736842,0.8753348388089011,1.0,0.9191176470588235,0.39846898191853575,0.8868421052631579,20.921412900002906
132,2.544464990201774e-05,0.590848725383932,0.9638636363636364,0.42458761020710595,0.868421052631579,0.8672801509610609,1.0,0.9176470588235294,0.40022052997036983,0.8842105263157894,20.923385200003395
133,2.283661937042025e-05,0.6257477152347565,0.9639772727272727,0.4107883657279767,0.8855263157894737,0.8844205344601359,1.0,0.9220588235294118,0.4018423776877554,0.8855263157894737,20.773056500001985
134,2.0370419544760518e-05,0.551256373795596,0.9776136363636364,0.3954405941461262,0.8842105263157894,0.883290825903788,1.0,0.9308823529411765,0.4012690503346293,0.8881578947368421,20.77305879999767
135,1.804731016213988e-05,0.6037758296186274,0.9653409090909091,0.40415368331106083,0.8868421052631579,0.886087850968134,1.0,0.9264705882352942,0.40149423762371667,0.8881578947368421,20.735052299998642
136,1.5868477868931964e-05,0.5634987176548351,0.9735227272727273,0.42755809614532875,0.8789473684210526,0.8776647493701664,1.0,0.9235294117647059,0.4016237767119157,0.8868421052631579,20.782229199998255
137,1.3835035614642541e-05,0.6273562123558738,0.9663636363636363,0.4088007070516285,0.8881578947368421,0.8869226238726651,1.0,0.9264705882352942,0.4032807205852709,0.8881578947368421,20.77215210000577
138,1.1948022083414199e-05,0.5827751890095797,0.9740909090909091,0.4252575529249091,0.8763157894736842,0.8742954583569453,1.0,0.9176470588235294,0.40444440371111817,0.8868421052631579,20.777776800001448
139,1.0208401163465185e-05,0.5714271058819511,0.9755681818181818,0.40834599482385736,0.8868421052631579,0.8858046074243416,1.0,0.925,0.40553275723206367,0.8868421052631579,20.73167110000213
140,8.617061454734755e-06,0.5929145303639498,0.965,0.4326686664631492,0.8789473684210526,0.8776127167866271,1.0,0.9176470588235294,0.406196192377492,0.8868421052631579,20.74108150000393
141,7.1748158149852224e-06,0.5968260856108232,0.9661363636363637,0.4236266293023762,0.8828947368421053,0.8820435860651695,1.0,0.9220588235294118,0.4075043521429363,0.8881578947368421,20.762253699998837
142,5.882400944593751e-06,0.6000577026063746,0.9677272727272728,0.3946358941103283,0.8855263157894737,0.8846312922947538,1.0,0.9220588235294118,0.40829451774296005,0.8881578947368421,20.79748479999398
143,4.740477010244959e-06,0.5951617505333641,0.9697727272727272,0.405268458002492,0.8868421052631579,0.8858702274203273,1.0,0.9205882352941176,0.4085927056638818,0.8881578947368421,20.806499400001485
144,3.7496273077172435e-06,0.5642273781516335,0.9764772727272727,0.40458791569659586,0.8828947368421053,0.8815628624525551,1.0,0.9235294117647059,0.40892069057414404,0.8881578947368421,20.771252300000924
145,2.9103579639347222e-06,0.6050631719285792,0.9689772727272727,0.43416394654073215,0.8789473684210526,0.8774990333439752,1.0,0.913235294117647,0.40968362814501713,0.8881578947368421,20.753062100004172
146,2.223097678437247e-06,0.5739137328754772,0.9801136363636364,0.4245353290909215,0.8802631578947369,0.8788325030004005,1.0,0.9161764705882353,0.41024595499038696,0.8868421052631579,20.637874699998065
147,1.6881975044002091e-06,0.5583641222390262,0.9731818181818181,0.40615876881699814,0.8868421052631579,0.8857088684452437,1.0,0.925,0.4102582435858877,0.8868421052631579,20.634966099998564
148,1.3059306693162125e-06,0.599887041720477,0.9728409090909091,0.41986951294698216,0.881578947368421,0.8805091210958294,1.0,0.9147058823529411,0.4109063396328374,0.8868421052631579,20.631170600005134
149,1.0764924354303636e-06,0.5758547566153787,0.9705681818181818,0.40935259367290294,0.8881578947368421,0.8871439217647005,1.0,0.9264705882352942,0.41096906097311725,0.8855263157894737,20.50321669999539
150,1e-06,0.5678376131707972,0.9761363636363637,0.4112851604035026,0.8855263157894737,0.884483044615863,1.0,0.9191176470588235,0.4109864078069988,0.8855263157894737,20.531356100007542
