epoch,lr,train_loss,train_accuracy,val_loss,val_accuracy,val_macro_f1,val_trial_accuracy,val_k3,ema_loss,ema_accuracy,seconds
1,5.9999999999999995e-05,2.8680099617351185,0.22272727272727272,2.1242104392302665,0.29210526315789476,0.2671768144855869,0.325,0.3426470588235294,1.615625,0.2,5.930666500004008
2,0.00011999999999999999,2.385361283909191,0.2496590909090909,1.8322396303478041,0.35789473684210527,0.33399117579343374,0.6,0.42058823529411765,1.6251310612026013,0.2,5.807454300003883
3,0.00018,2.200674049204046,0.30261363636363636,1.514021126847518,0.46710526315789475,0.4136191799096677,0.6,0.5102941176470588,1.6339522537432218,0.2,5.8078621000022395
4,0.00023999999999999998,2.035279526277022,0.37022727272727274,4.470963460520694,0.4473684210526316,0.3967409214876733,0.475,0.475,1.638438017744767,0.2,5.78988820000086
5,0.0003,1.9188585593483665,0.4157954545454545,2.6567302816792537,0.5078947368421053,0.4459071715178565,0.575,0.5426470588235294,1.6419921875,0.2,5.791430800003582
6,0.00035999999999999997,1.700333114970814,0.4734090909090909,1.6908535417757535,0.5907894736842105,0.5495644529409647,0.775,0.6529411764705882,1.6447265625,0.2,5.780939000003855
7,0.00042,1.5557931358164008,0.5059090909090909,1.0249153752076,0.6447368421052632,0.613180791729802,0.75,0.6661764705882353,1.645703125,0.2,5.792673500000092
8,0.0004799999999999999,1.4921701088818637,0.5436363636363636,0.8733028637735467,0.6763157894736842,0.6552480177698226,0.8,0.7661764705882353,1.644248560855263,0.2,5.8158130000010715
9,0.00054,1.4249324126677079,0.5803409090909091,1.3209553141342967,0.6907894736842105,0.6705929928147569,0.825,0.7617647058823529,1.6439453125,0.2,5.778810900003009
10,0.0005999999999999998,1.3342756353725087,0.6121590909090909,1.8092286749889976,0.7026315789473684,0.6848658606511856,0.775,0.7529411764705882,1.63984375,0.2,5.804805899999337
11,0.0006,1.3109434513612228,0.6267045454545455,1.4831462646785536,0.7723684210526316,0.7711928751877883,1.0,0.8455882352941176,1.6355751451693084,0.2,5.804937699998845
12,0.0005999235075645696,1.23498384475708,0.6696590909090909,0.7710915226685373,0.7802631578947369,0.7752811357724897,1.0,0.8470588235294118,1.6328664679276317,0.2,5.794083200002206
13,0.0005996940693306837,1.145030465559526,0.6902272727272727,0.7092521284755907,0.8013157894736842,0.7996510968044257,1.0,0.8808823529411764,1.629505037006579,0.2,5.795800500003679
14,0.0005993118024955998,1.1701915823329578,0.6902272727272727,0.666217481462579,0.7960526315789473,0.7943821569224829,0.975,0.8794117647058823,1.6269428479044061,0.2,5.798233800000162
15,0.0005987769023215627,1.1229527906938033,0.7107954545454546,0.5662197301262304,0.8315789473684211,0.8307588777137649,1.0,0.9029411764705882,1.62421875,0.2,5.7805847999989055
16,0.0005980896420360653,1.0781998829408126,0.7294318181818182,0.5670604454843622,0.8315789473684211,0.8295953074722024,1.0,0.8897058823529411,1.621860865542763,0.2,5.782283300002746
17,0.0005972503726922827,1.0952344031767411,0.7392045454545455,0.6357050845497533,0.8381578947368421,0.8375361415174479,1.0,0.9117647058823529,1.620421720805921,0.2,5.783241599994653
18,0.0005962595229897549,1.0696151837435635,0.7421590909090909,0.6912853435466164,0.8184210526315789,0.814718014922731,0.975,0.888235294117647,1.6197445492995413,0.2,5.759876599993731
19,0.0005951175990554061,1.0517710642381148,0.7439772727272728,0.5195635387772009,0.8368421052631579,0.8347387378474513,1.0,0.9102941176470588,1.619031404194079,0.2,5.773731000001135
20,0.0005938251841850148,1.0596925291148098,0.7479545454545454,0.49226988616742584,0.8407894736842105,0.8391632465168251,1.0,0.9073529411764706,1.6189453125,0.2,5.795478100000764
21,0.0005923829385452652,1.034873965436762,0.7664772727272727,0.5617296915305289,0.8605263157894737,0.8601200201736322,1.0,0.9161764705882353,1.6185546875,0.2,5.767952599999262
22,0.0005907915988365347,0.997433950250799,0.7697727272727273,0.4944432202138399,0.8381578947368421,0.8376616730649786,1.0,0.9,1.6185855263157896,0.2,5.801717700000154
23,0.0005890519779165858,0.9796183642474088,0.7778409090909091,0.46540977954864504,0.8526315789473684,0.852079559988107,1.0,0.9352941176470588,1.6189260382401316,0.2,5.795605199993588
24,0.0005871649643853574,0.9952742741324685,0.7810227272727273,0.4457066391643725,0.8539473684210527,0.8518651874562639,1.0,0.925,1.6201891459916766,0.2,5.786509600002319
25,0.000585131522131068,0.9515514785593207,0.7957954545454545,0.4358221612478557,0.8723684210526316,0.8727666731877761,1.0,0.9397058823529412,1.621875,0.2,5.763357399999222
26,0.0005829526898378601,0.9363261491602117,0.8014772727272728,0.47404711560199136,0.8671052631578947,0.8654014436604316,1.0,0.9294117647058824,1.6236328125,0.2,5.794738399999915
27,0.0005806295804552395,0.9407216572761535,0.7960227272727273,0.487390198833064,0.8657894736842106,0.8659405858931081,1.0,0.9338235294117647,1.6251953125,0.2,5.8116422000020975
28,0.0005781633806295796,0.8945164106108926,0.8190909090909091,0.4116202963025946,0.8710526315789474,0.869792011556169,1.0,0.9294117647058824,1.6266550164473683,0.2,5.797179400004097
29,0.0005755553500979822,0.9157780818505721,0.8131818181818182,0.4889617311327081,0.8592105263157894,0.8584212890074563,1.0,0.9220588235294118,1.627149722450658,0.2,5.789419499997166
30,0.0005728068210448012,0.8509281509572809,0.8386363636363636,0.4610609744724474,0.8618421052631579,0.8595543629025814,1.0,0.9220588235294118,1.6296656558388158,0.2,5.803621799997927
31,0.0005699191974211625,0.887612393986095,0.8211363636363637,0.4585577111495169,0.8671052631578947,0.8664197853114013,1.0,0.9352941176470588,1.6306910464638158,0.2,5.796582700000727
32,0.0005668939542278249,0.902806482965296,0.8140909090909091,0.4770058631896973,0.8723684210526316,0.8678433948321373,1.0,0.9205882352941176,1.631725431743421,0.2,5.752585800000816
33,0.0005637326367617472,0.8895391767675226,0.8185227272727272,0.4326295582871688,0.8618421052631579,0.8613910254507624,1.0,0.9161764705882353,1.6333162006578947,0.2,5.805587199996808
34,0.0005604368598267504,0.9098910622163252,0.8130681818181819,0.4585745547947131,0.8789473684210526,0.8780883603868105,1.0,0.9426470588235294,1.6339342594146729,0.2,5.782681200005754
35,0.0005570083069086733,0.8714855935356833,0.8321590909090909,0.37381181277726827,0.8921052631578947,0.8918768344860386,1.0,0.9441176470588235,1.6341103014193084,0.2,5.779645800001163
36,0.0005534487293154471,0.8867616787823763,0.8252272727272727,0.40605364285017315,0.8947368421052632,0.8937292111484296,1.0,0.9441176470588235,1.633144019779406,0.2,5.769599500003096
37,0.0005497599452825259,0.8782479817217047,0.8239772727272727,0.4088903132237886,0.9013157894736842,0.900817337248571,1.0,0.9514705882352941,1.6317228630969398,0.2,5.761834099997941
38,0.0005459438390441295,0.8621013359590011,0.8314772727272727,0.4110891602541271,0.8828947368421053,0.8818160681411292,1.0,0.95,1.630123095763357,0.2,5.79173609999998
39,0.0005420023598707758,0.8337603451988914,0.8434090909090909,0.4078579055635553,0.8618421052631579,0.8591075497572132,0.975,0.9235294117647059,1.6274401238090113,0.2,5.751209200003359
40,0.0005379375210735911,0.8398412769491023,0.8407954545454546,0.47759230513321727,0.8657894736842106,0.8619964341068697,1.0,0.8926470588235295,1.6218017553028308,0.2,5.775996299998951
41,0.0005337513989759092,0.8025533463738181,0.8588636363636364,0.4109024010206524,0.8960526315789473,0.8957376713658982,1.0,0.95,1.613387904669109,0.2,5.804249699998763
42,0.0005294461318526833,0.8302567477659746,0.8364772727272727,0.4655051538818761,0.881578947368421,0.8808006594357867,1.0,0.9382352941176471,1.6016563039076956,0.3828947368421053,5.766962000001513
43,0.0005250239188382536,0.800729915228757,0.8604545454545455,0.35915366881772093,0.9052631578947369,0.9048334901603914,1.0,0.9573529411764706,1.5835513428637855,0.3460526315789474,5.827804200001992
44,0.0005204870188030272,0.7636806891181253,0.8742045454545454,0.42198030132996406,0.8894736842105263,0.8883094103968714,1.0,0.925,1.5585654773210225,0.23157894736842105,5.8035235999996075
45,0.0005158377491996452,0.8049803597276861,0.8465909090909091,0.3531239713493146,0.906578947368421,0.9058665542790283,1.0,0.9470588235294117,1.5247417236629286,0.21842105263157896,5.774234500000603
46,0.0005110784848792257,0.8263456587357955,0.8488636363636364,0.41666441497049833,0.8973684210526316,0.8965422824426291,1.0,0.9514705882352941,1.4819663587369416,0.22631578947368422,5.794470799999544
47,0.0005062116568782877,0.7851756557551297,0.8610227272727272,0.4002519074239229,0.8973684210526316,0.8966340542043474,1.0,0.9544117647058824,1.4257478406554773,0.2644736842105263,5.79963349999889
48,0.0005012397511769754,0.7506609944863752,0.8756818181818182,0.33644939472800806,0.9105263157894737,0.9103758935448303,1.0,0.9485294117647058,1.3519987420031898,0.325,5.790041100000963
49,0.0004961653074292177,0.7825531456687234,0.8640909090909091,0.40295468317834954,0.8881578947368421,0.8883444735817865,0.975,0.925,1.256018710763831,0.4381578947368421,5.7960227000003215
50,0.0004909909176654702,0.7596991896629334,0.8714772727272727,0.47536196520454005,0.8539473684210527,0.8501086832953371,0.95,0.8985294117647059,1.147340150255906,0.5381578947368421,5.805550800003402
51,0.00048571922496870357,0.7911838694052262,0.865,0.3416536823699349,0.9144736842105263,0.9146917480675499,1.0,0.9529411764705882,1.0278076184423346,0.6592105263157895,5.791083100004471
52,0.00048035292212431514,0.7487139048359611,0.8798863636363636,0.3220411203409496,0.9197368421052632,0.9200918944660688,1.0,0.9676470588235294,0.9108083630862989,0.7407894736842106,5.813284800002293
53,0.0004748947502446508,0.7309818631952459,0.8932954545454546,0.3373800977280265,0.9118421052631579,0.9116406972732787,1.0,0.9426470588235294,0.7995971673413327,0.8026315789473685,5.787885199999437
54,0.00046934749736884306,0.7281396442109889,0.8893181818181818,0.41925994534241523,0.9013157894736842,0.9001881239248155,1.0,0.9397058823529412,0.7076703504512184,0.8407894736842105,5.946514699993713
55,0.0004637139970386777,0.7604026807438243,0.8746590909090909,0.42866002038905493,0.9144736842105263,0.9141007283997551,1.0,0.95,0.6342331735711348,0.8671052631578947,6.0625574000005145
56,0.000457997126851218,0.7286712382056496,0.8892045454545454,0.3787184065894077,0.9078947368421053,0.9073025845522587,1.0,0.9558823529411765,0.5779863840655277,0.8907894736842106,5.774572800000897
57,0.00045219980698892607,0.7235867621681907,0.8928409090909091,0.38832165065564606,0.9092105263157895,0.9071368103639532,1.0,0.9470588235294117,0.5297660438637984,0.9,5.817021900002146
58,0.0004463249987280305,0.6996450259468773,0.9072727272727272,0.3696305921203212,0.906578947368421,0.9056643890893593,1.0,0.9382352941176471,0.48852506938733553,0.9039473684210526,5.7631643999993685
59,0.000440375702925904,0.7522460627555847,0.8843181818181818,0.41548719092419273,0.9026315789473685,0.9021804194908937,1.0,0.9441176470588235,0.46298474700827347,0.9105263157894737,5.77703019999899
60,0.0004343549584882226,0.721817150332711,0.9018181818181819,0.33155152076169064,0.9092105263157895,0.9090214135589093,1.0,0.9558823529411765,0.4388663837784215,0.9171052631578948,5.777801000003819
61,0.00042826584081669025,0.7457109388438138,0.8872727272727273,0.34877295305854394,0.9092105263157895,0.909029119273655,1.0,0.9529411764705882,0.4232661197060033,0.9184210526315789,5.805391199995938
62,0.00042211146023812037,0.7274879568273371,0.8955681818181818,0.3755638844088504,0.9171052631578948,0.9166651497347986,1.0,0.9544117647058824,0.4073046226250498,0.925,5.778231500000402
63,0.0004158949604156783,0.7286908921328458,0.8870454545454546,0.36175529172545984,0.9092105263157895,0.9089591893443835,1.0,0.9367647058823529,0.3975290405122857,0.9210526315789473,5.786475000000792
64,0.0004096195167430953,0.7106846542791887,0.9064772727272727,0.32084971070289614,0.9184210526315789,0.9181513442394446,1.0,0.9485294117647058,0.38635317965557703,0.9210526315789473,5.807666799999424
65,0.0004032883347226749,0.7156549113447016,0.9028409090909091,0.41071745157241824,0.8894736842105263,0.8893819677322133,1.0,0.925,0.37910959281419454,0.9210526315789473,5.810097400004452
66,0.0003969046483279189,0.7003772912242195,0.90375,0.33670951410343775,0.9118421052631579,0.9115431015042501,1.0,0.9529411764705882,0.37385784136621575,0.9197368421052632,5.791961599999922
67,0.0003904717183516109,0.7098079631545327,0.9114772727272727,0.3387059155263399,0.9144736842105263,0.9140913471041519,1.0,0.9573529411764706,0.3691629503902636,0.9197368421052632,5.7737100000013015
68,0.0003839928307402005,0.7112124527584422,0.9125,0.37607269412592836,0.9092105263157895,0.9091809525082063,1.0,0.95,0.366001810525593,0.9184210526315789,5.762830899999244
69,0.00037747129491533916,0.7145920712297613,0.8975,0.3804891476505681,0.9118421052631579,0.9111776629801195,1.0,0.9573529411764706,0.3636861713309037,0.9197368421052632,5.792122799997742
70,0.0003709104420834241,0.6827481266585264,0.9139772727272727,0.3927986938702433,0.8868421052631579,0.884588970981036,1.0,0.9426470588235294,0.36030626987156117,0.9210526315789473,5.804791900001874
71,0.00036431362353401533,0.6914888212897561,0.9121590909090909,0.3804917184930099,0.906578947368421,0.9054286382001638,1.0,0.9470588235294117,0.3572863127055921,0.9210526315789473,5.813091899995925
72,0.0003576842089279937,0.6684006151286038,0.9205681818181818,0.41937749636800664,0.8947368421052632,0.8926797517772854,0.975,0.9441176470588235,0.35442569067603663,0.9197368421052632,5.791057800000999
73,0.0003510255845763356,0.7091983553496274,0.9113636363636364,0.40673133385808846,0.9157894736842105,0.9153352737128759,1.0,0.9602941176470589,0.3550717786738747,0.9223684210526316,5.803138700001
74,0.0003443411517103819,0.7306493637778543,0.9101136363636364,0.41866667898077714,0.8881578947368421,0.8871254287900505,0.975,0.925,0.35730831748560854,0.9236842105263158,5.790161099997931
75,0.0003376343247444856,0.6603813241828572,0.9315909090909091,0.3354902970163446,0.9197368421052632,0.9196630678796829,1.0,0.9529411764705882,0.354468255921414,0.9263157894736842,5.780359500000486
76,0.0003309085295319264,0.6724064805290916,0.915,0.3932233917085748,0.9013157894736842,0.9006733724465141,1.0,0.9426470588235294,0.3529841372841283,0.9276315789473685,5.779906600000686
77,0.0003241672016149815,0.6871434377540242,0.9169318181818182,0.3762397355154941,0.9092105263157895,0.9091115781205067,1.0,0.95,0.351648431702664,0.9276315789473685,5.784522699999798
78,0.00031741378447004763,0.7167443245107478,0.9094318181818182,0.4056034295182479,0.9144736842105263,0.9143884203145397,1.0,0.9558823529411765,0.35144396455664384,0.9289473684210526,5.758057500002906
79,0.00031065172774871004,0.6414011437242682,0.9311363636363637,0.3811914538082324,0.8934210526315789,0.8930901118301477,1.0,0.9529411764705882,0.3484277009963989,0.9276315789473685,5.783016199995473
80,0.00030388448551565744,0.6724500027569857,0.9190909090909091,0.3986409501025551,0.9118421052631579,0.9106804773720383,1.0,0.9411764705882353,0.3476948791428616,0.925,5.834884199997759
81,0.0002971155144843426,0.6854752217639576,0.9175,0.40918959159600105,0.9052631578947369,0.9046625413554834,1.0,0.9573529411764706,0.3480396458977147,0.9276315789473685,5.780520499996783
82,0.0002903482722512899,0.668222724090923,0.9367045454545454,0.36023168030538055,0.9171052631578948,0.9170526444860199,1.0,0.9529411764705882,0.34957074742568167,0.9289473684210526,5.767823299996962
83,0.0002835862155299524,0.6183413633433256,0.9378409090909091,0.34425739583216214,0.9144736842105263,0.9150168625179453,1.0,0.9514705882352941,0.3465668537114796,0.9263157894736842,5.753245299994887
84,0.00027683279838501855,0.6589922978661277,0.9305681818181818,0.35944201224728634,0.925,0.9250638608752515,1.0,0.9573529411764706,0.34516224170985976,0.9263157894736842,5.7741718999968725
85,0.00027009147046807365,0.6896530693227595,0.9219318181818181,0.35405052555234806,0.9210526315789473,0.9203242529647845,1.0,0.9558823529411765,0.34465813856375843,0.9276315789473685,5.793768300005468
86,0.0002633656752555145,0.6853656995296479,0.9213636363636364,0.3889421575947812,0.9118421052631579,0.9117001976532159,1.0,0.9470588235294117,0.3454315994915209,0.9289473684210526,5.79822360000253
87,0.00025665884828961807,0.6587208489938216,0.9318181818181818,0.3497530780340496,0.9197368421052632,0.9194572096800956,1.0,0.9514705882352941,0.3447255984732979,0.9302631578947368,5.798144199994567
88,0.00024997441542366436,0.6367974840510975,0.9385227272727272,0.35271923667506166,0.9026315789473685,0.901235678456529,1.0,0.9426470588235294,0.3428620181585613,0.9302631578947368,5.794716600001266
89,0.00024331579107200632,0.6638589476455342,0.9419318181818181,0.32428376078605653,0.9236842105263158,0.9231919504566347,1.0,0.9529411764705882,0.3422974435906661,0.9328947368421052,5.785664299997734
90,0.0002366863764659847,0.6206304836273193,0.9417045454545454,0.35225147510829724,0.9236842105263158,0.9237389719634921,1.0,0.9514705882352941,0.34022044131630347,0.9328947368421052,5.7780028999986826
91,0.0002300895579165759,0.63063969373703,0.9394318181818182,0.3538251368623031,0.9118421052631579,0.9113379865952613,1.0,0.9470588235294117,0.3407960195290415,0.9302631578947368,5.77868729999318
92,0.0002235287050846607,0.6370216122540561,0.9342045454545455,0.3453158736228943,0.9078947368421053,0.9075370061053529,1.0,0.9485294117647058,0.33982676518590826,0.9315789473684211,5.7887400000036
93,0.00021700716925979942,0.6830487576397982,0.928409090909091,0.36284629388859396,0.9157894736842105,0.915726267623433,1.0,0.9470588235294117,0.34100958203014575,0.9328947368421052,5.776149700002861
94,0.00021052828164838913,0.6383710368113085,0.9301136363636363,0.34017984522016426,0.9236842105263158,0.9235578178562609,1.0,0.9573529411764706,0.34127006530761717,0.9328947368421052,5.776766399998451
95,0.00020409535167208103,0.6552158277684992,0.9367045454545454,0.35259552033323993,0.9118421052631579,0.9116080674241432,1.0,0.9544117647058824,0.341013335867932,0.9302631578947368,5.84538039999461
96,0.00019771166527732506,0.6550050100413236,0.9344318181818182,0.35812761501262064,0.9236842105263158,0.9236798241227632,1.0,0.9529411764705882,0.34146662228985836,0.9289473684210526,5.789434099999198
97,0.00019138048325690465,0.6591184449195862,0.9357954545454545,0.43179530062173543,0.9118421052631579,0.911156910894082,1.0,0.9470588235294117,0.34115198976115174,0.9263157894736842,5.759558099998685
98,0.00018510503958432174,0.631406030221419,0.9406818181818182,0.37261400912937365,0.9157894736842105,0.9152070148556024,1.0,0.9544117647058824,0.3397201547497197,0.925,5.766836399998283
99,0.0001788885397618797,0.6522412497347051,0.9395454545454546,0.36731013153728687,0.9131578947368421,0.9124282609846082,1.0,0.9602941176470589,0.339823391563014,0.925,5.818550000003597
100,0.00017273415918330973,0.6430114065517079,0.944659090909091,0.35187321681725353,0.9157894736842105,0.9155254424335479,1.0,0.9558823529411765,0.3402962123092852,0.9236842105263158,5.76913020000211
101,0.00016664504151177735,0.6469438750093633,0.9422727272727273,0.36326784020976016,0.9131578947368421,0.9130693692346192,1.0,0.95,0.3418438167948472,0.9236842105263158,5.756138900003862
102,0.00016062429707409598,0.60684678142721,0.9629545454545455,0.3419071003010398,0.9210526315789473,0.9209473485889852,1.0,0.9514705882352941,0.34083625423280817,0.9223684210526316,5.784737599999062
103,0.00015467500127196946,0.6480214606631886,0.9360227272727273,0.3486276482280932,0.9223684210526316,0.922309749165867,1.0,0.9544117647058824,0.3404786765575409,0.9210526315789473,5.785276499998872
104,0.0001488001930110739,0.6221570162339644,0.9452272727272727,0.3230636587268428,0.9302631578947368,0.9298408713632027,1.0,0.9588235294117647,0.3392552827533923,0.9210526315789473,5.8079377000030945
105,0.00014300287314878202,0.6391921700130809,0.9422727272727273,0.3707231433768021,0.9210526315789473,0.9207784714864176,1.0,0.9529411764705882,0.3372838073655179,0.9236842105263158,5.791154799997457
106,0.00013728600296132235,0.6251531464403326,0.9455681818181818,0.3320579227648283,0.9236842105263158,0.9237431151588265,1.0,0.9514705882352941,0.3389523546946676,0.925,5.793730500001402
107,0.00013165250263115694,0.5959574104439128,0.9514772727272728,0.35798213262307016,0.9184210526315789,0.9183184710325382,1.0,0.95,0.3389205135797199,0.9210526315789473,5.790470700005244
108,0.0001261052497553492,0.6201517161456022,0.9518181818181818,0.38109785475228963,0.9197368421052632,0.919146666405932,1.0,0.9573529411764706,0.33862505398298565,0.9223684210526316,5.798923700000159
109,0.0001206470778756849,0.5915092591805892,0.9595454545454546,0.35248541486890694,0.9197368421052632,0.9192545894995217,1.0,0.9573529411764706,0.3382271220809535,0.9236842105263158,5.803194200001599
110,0.0001152807750312964,0.650217816179449,0.9421590909090909,0.3410723228203623,0.925,0.9244936871893692,1.0,0.9573529411764706,0.3388369905321222,0.925,5.787369300000137
111,0.00011000908233452982,0.6464545362645929,0.9411363636363637,0.3503634396352266,0.925,0.9247876690943428,1.0,0.9573529411764706,0.33966273194865176,0.9276315789473685,5.7870765999978175
112,0.00010483469257078224,0.6394158718802713,0.9438636363636363,0.38800936278543974,0.9223684210526316,0.922162786799068,1.0,0.9573529411764706,0.3389276604903372,0.9289473684210526,5.814310499998101
113,9.976024882302456e-05,0.630911284793507,0.9417045454545454,0.36065023353225306,0.9289473684210526,0.9283620772187291,1.0,0.961764705882353,0.3381787761261589,0.9289473684210526,5.818572799995309
114,9.478834312171236e-05,0.6220796645771374,0.951590909090909,0.29027027236787895,0.925,0.9248564641019363,1.0,0.9529411764705882,0.338137254903191,0.9276315789473685,5.782752300001448
115,8.992151512077429e-05,0.5855114241079851,0.9534090909090909,0.30061757878253337,0.9289473684210526,0.9290319793734243,1.0,0.9544117647058824,0.3358850570101487,0.9289473684210526,5.787055599997984
116,8.516225080035476e-05,0.6538626915758307,0.9389772727272727,0.36007055922558434,0.9263157894736842,0.9258265129281522,1.0,0.961764705882353,0.3354585343285611,0.9302631578947368,5.802862199998344
117,8.051298119697266e-05,0.652078512581912,0.93125,0.3592642931561721,0.9197368421052632,0.9195405287621121,1.0,0.9632352941176471,0.3354950754266036,0.9328947368421052,5.783710399999109
118,7.597608116174637e-05,0.5985791644183072,0.9543181818181818,0.32639846707645215,0.9197368421052632,0.9196824154270324,1.0,0.9544117647058824,0.3338119497424678,0.9302631578947368,5.814759100001538
119,7.155386814731662e-05,0.6404866708408703,0.9448863636363637,0.36213511510899193,0.9210526315789473,0.9207717429916278,1.0,0.9602941176470589,0.3341118257296713,0.9289473684210526,5.777210000000196
120,6.724860102409081e-05,0.583569082997062,0.9518181818181818,0.35408869322977565,0.9223684210526316,0.9221525433738386,1.0,0.9573529411764706,0.33300066496196545,0.9289473684210526,5.786443099997996
121,6.306247892640888e-05,0.6064621472358703,0.9598863636363636,0.3437538146972656,0.9144736842105263,0.9138886492186751,1.0,0.9588235294117647,0.3321526775234624,0.9276315789473685,5.791522200001054
122,5.899764012922409e-05,0.6097082055698742,0.9520454545454545,0.3589852185625779,0.9210526315789473,0.9209600154862514,1.0,0.9573529411764706,0.3319734269066861,0.9276315789473685,5.858050299997558
123,5.5056160955870474e-05,0.585228061025793,0.9597727272727272,0.370965597190355,0.9184210526315789,0.9178558599528179,1.0,0.9558823529411765,0.3302982537369979,0.9302631578947368,5.851521999997203
124,5.1240054717474066e-05,0.6089367265051061,0.9563636363636364,0.35369744520438345,0.9197368421052632,0.919315928097791,1.0,0.9573529411764706,0.33134982429052656,0.9302631578947368,5.7591818000000785
125,4.755127068455278e-05,0.5711918810280887,0.9697727272727272,0.3396624910204034,0.9276315789473685,0.9275315000967158,1.0,0.9529411764705882,0.33087543782434964,0.9302631578947368,5.763998199996422
126,4.399169309132677e-05,0.599525841474533,0.9544318181818182,0.35958047070001303,0.9223684210526316,0.9216840922882774,1.0,0.9588235294117647,0.33066342002467103,0.9302631578947368,5.779769799999485
127,4.0563140173249585e-05,0.6120823823321949,0.9551136363636363,0.3621573504648711,0.9131578947368421,0.9124957748710815,1.0,0.9632352941176471,0.33145398685806676,0.9289473684210526,5.756612999997742
128,3.726736323825278e-05,0.635900757746263,0.9432954545454545,0.36389485503497876,0.9223684210526316,0.9221312229673257,1.0,0.9588235294117647,0.33231996203723707,0.9289473684210526,5.754400499994517
129,3.41060457721751e-05,0.6091692210327495,0.9485227272727272,0.3417124296489515,0.9236842105263158,0.9237744417705676,1.0,0.9573529411764706,0.33270552691660427,0.9289473684210526,5.780812500001048
130,3.1080802578837415e-05,0.6385707651485096,0.9380681818181819,0.3775289425724431,0.9184210526315789,0.9182031450238297,1.0,0.9588235294117647,0.33393542546974986,0.9289473684210526,5.7782972999993945
131,2.8193178955198895e-05,0.6081933794238351,0.9559090909090909,0.35613477637893276,0.9197368421052632,0.9193210102024599,1.0,0.9632352941176471,0.3341572419593209,0.9289473684210526,5.801823599998897
132,2.544464990201774e-05,0.6014170694351196,0.9602272727272727,0.3318073476615705,0.925,0.9245980625109074,1.0,0.9573529411764706,0.33463773256854007,0.9302631578947368,5.781349800003227
133,2.283661937042025e-05,0.6123035220666365,0.9611363636363637,0.3481589263991306,0.9144736842105263,0.9139800678930594,1.0,0.9529411764705882,0.33431018936006646,0.9289473684210526,5.781651499994041
134,2.0370419544760518e-05,0.5946524544195695,0.9630681818181818,0.346129898648513,0.9210526315789473,0.9209021501942416,1.0,0.9573529411764706,0.3334910954299726,0.9289473684210526,5.7907107999999425
135,1.804731016213988e-05,0.5983579167452725,0.9548863636363636,0.327446344651674,0.9236842105263158,0.9234952517966185,1.0,0.9573529411764706,0.33290031928765146,0.9276315789473685,5.752902700005507
136,1.5868477868931964e-05,0.6276354761557146,0.9504545454545454,0.32611893133113257,0.9171052631578948,0.9165364163205378,1.0,0.9558823529411765,0.33341562371504935,0.9276315789473685,5.784545800001069
137,1.3835035614642541e-05,0.6110015261173248,0.9560227272727273,0.3421243771126396,0.9210526315789473,0.9208282057557253,1.0,0.9558823529411765,0.3334991665262925,0.9263157894736842,5.782103599995025
138,1.1948022083414199e-05,0.6146666958115318,0.9622727272727273,0.34595359406973186,0.9184210526315789,0.9179408846468118,1.0,0.9544117647058824,0.3342380125271647,0.9236842105263158,5.777698199999577
139,1.0208401163465185e-05,0.6194290821118789,0.9569318181818182,0.33869628812137403,0.9197368421052632,0.9194946835980433,1.0,0.9558823529411765,0.33525007241650634,0.9210526315789473,5.760104999993928
140,8.617061454734755e-06,0.5952718847448175,0.9672727272727273,0.32946751305931493,0.9157894736842105,0.9151096633956544,1.0,0.9544117647058824,0.33458368307665776,0.9210526315789473,5.7962466000026325
141,7.1748158149852224e-06,0.6088152758641676,0.956590909090909,0.3221331154045306,0.9197368421052632,0.9195155940183277,1.0,0.9602941176470589,0.3353301597268958,0.9210526315789473,5.797460100002354
142,5.882400944593751e-06,0.6243949131532149,0.9621590909090909,0.3505749755784085,0.9197368421052632,0.9197120641290862,1.0,0.9588235294117647,0.336105205510792,0.9197368421052632,5.80322769999475
143,4.740477010244959e-06,0.6369629521803423,0.949659090909091,0.3786593995596233,0.9184210526315789,0.9180214294011553,1.0,0.9647058823529412,0.33700969062353436,0.9197368421052632,5.779709499998717
144,3.7496273077172435e-06,0.616398403861306,0.9571590909090909,0.3397402321037493,0.9184210526315789,0.9182201986365566,1.0,0.9544117647058824,0.33698250525876094,0.9184210526315789,5.770538400000078
145,2.9103579639347222e-06,0.6303496373783458,0.9494318181818182,0.34898145481159815,0.9184210526315789,0.9181467572362386,1.0,0.9529411764705882,0.3376146410640917,0.9197368421052632,5.776574999996228
146,2.223097678437247e-06,0.6067644210295243,0.9542045454545455,0.3416438250165237,0.9144736842105263,0.9137775099744854,1.0,0.9573529411764706,0.33745998551971035,0.9197368421052632,5.803052600000228
147,1.6881975044002091e-06,0.6012862392989072,0.9614772727272727,0.342512352529325,0.9223684210526316,0.9220487651191464,1.0,0.9558823529411765,0.33694108599110656,0.9210526315789473,5.77371249999851
148,1.3059306693162125e-06,0.6281742867556486,0.9510227272727273,0.3654028550574654,0.9131578947368421,0.9124836286903457,1.0,0.9573529411764706,0.3372821403177161,0.9210526315789473,5.7754125999999815
149,1.0764924354303636e-06,0.614731839353388,0.9554545454545454,0.31474786965470564,0.9210526315789473,0.9206046336036866,1.0,0.9529411764705882,0.3376749939040134,0.9223684210526316,5.822361800004728
150,1e-06,0.6294433634931391,0.946590909090909,0.3657834595755527,0.9144736842105263,0.914014455145679,1.0,0.9588235294117647,0.338104909658432,0.9210526315789473,5.797721099996124
