epoch,lr,train_loss,train_accuracy,val_loss,val_accuracy,val_macro_f1,val_trial_accuracy,val_k3,ema_loss,ema_accuracy,seconds
1,5.9999999999999995e-05,2.6724863043698397,0.22670454545454546,1.624981104700189,0.25263157894736843,0.21131216576864736,0.25,0.2514705882352941,1.6126953125,0.2,10.594342399999732
2,0.00011999999999999999,2.3838031057877975,0.2761363636363636,1.5544880114103619,0.36447368421052634,0.32856960221049875,0.5,0.4147058823529412,1.6162353515625,0.2,5.775114700001723
3,0.00018,2.153957124189897,0.34556818181818183,1.6540940711372778,0.43157894736842106,0.3752124593719624,0.5,0.4485294117647059,1.6227359169407896,0.2,5.752886399997806
4,0.00023999999999999998,1.9983289709958163,0.37931818181818183,1.5759749425084968,0.3828947368421053,0.3019268161121502,0.425,0.4073529411764706,1.628559314577203,0.2,5.7564118999944185
5,0.0003,1.9038782137090509,0.4168181818181818,1.4408401853159853,0.4421052631578947,0.3750430801518886,0.45,0.4426470588235294,1.634375,0.2,5.778078299998015
6,0.00035999999999999997,1.7593132834001022,0.4640909090909091,1.243172688233225,0.4697368421052632,0.41135111039729805,0.475,0.4647058823529412,1.6375,0.2,5.773655899996811
7,0.00042,1.580178819136186,0.5169318181818182,1.0510075518959447,0.6368421052631579,0.6226067478246425,0.825,0.6882352941176471,1.6363949424342106,0.2,5.764560399999027
8,0.0004799999999999999,1.4731219621138139,0.5620454545454545,0.9182690946679366,0.6552631578947369,0.6471007584935371,0.9,0.7264705882352941,1.6341527035361842,0.2,5.747009500002605
9,0.00054,1.3713311962647872,0.6023863636363637,0.8952474079634014,0.6802631578947368,0.6763367147304903,0.95,0.7514705882352941,1.6300845497532894,0.2,5.789160499996797
10,0.0005999999999999998,1.3119262621619485,0.6297727272727273,0.7977599307110436,0.7223684210526315,0.7145775548674136,0.925,0.7911764705882353,1.6261705900493422,0.2,5.7667499000017415
11,0.0006,1.253060711513866,0.6557954545454545,1.0424226472252294,0.718421052631579,0.712300796881774,0.95,0.7897058823529411,1.623828125,0.2,5.793380099996284
12,0.0005999235075645696,1.2443999216773294,0.6806818181818182,0.8028717053563972,0.7539473684210526,0.747341793403384,1.0,0.825,1.620521946957237,0.2,5.755754199999501
13,0.0005996940693306837,1.174071549502286,0.6939772727272727,0.8039768833863108,0.7473684210526316,0.7367765689845343,0.85,0.8044117647058824,1.61796875,0.2,5.78780619999452
14,0.0005993118024955998,1.1256619501113891,0.711590909090909,0.7993022937523692,0.7736842105263158,0.7719812465423214,1.0,0.8602941176470589,1.6161376953125,0.2,5.793364299999666
15,0.0005987769023215627,1.1468131745945325,0.7177272727272728,0.6440676256230004,0.8092105263157895,0.8089171419230039,1.0,0.8897058823529411,1.6150968877892746,0.2,5.755158899999515
16,0.0005980896420360653,1.062106311754747,0.7396590909090909,0.6170485465150131,0.8092105263157895,0.8070911044627174,1.0,0.8705882352941177,1.614794921875,0.2,5.7695848000003025
17,0.0005972503726922827,1.0601658979329196,0.7436363636363637,0.6958317003752056,0.7947368421052632,0.7876654197746992,0.925,0.85,1.6152330900493421,0.2,5.76858390000416
18,0.0005962595229897549,1.0494131075252187,0.755,0.6458459132596066,0.8171052631578948,0.8138393412802468,0.925,0.8632352941176471,1.6157958984375,0.2,5.752068900001177
19,0.0005951175990554061,1.0406582019545816,0.7536363636363637,0.5921811963382521,0.8302631578947368,0.8293781769824529,1.0,0.9117647058823529,1.6161839547910188,0.2,5.752274700003909
20,0.0005938251841850148,1.019491909417239,0.7634090909090909,0.7861235097834939,0.8144736842105263,0.8097159548354748,0.975,0.8676470588235294,1.61640625,0.2,5.770951300000888
21,0.0005923829385452652,1.0134892602400347,0.7702272727272728,0.6326535833509345,0.8276315789473684,0.8251636426951563,1.0,0.8926470588235295,1.6169292249177631,0.2,5.7444427000009455
22,0.0005907915988365347,0.9859301038221879,0.77625,0.5655969029978702,0.825,0.8209272751937876,1.0,0.8779411764705882,1.6179764597039474,0.2,5.778863799998362
23,0.0005890519779165858,0.9821755691008134,0.77875,0.5444399190576453,0.8289473684210527,0.8261213050486169,1.0,0.888235294117647,1.6193269428453947,0.2,5.768929499994556
24,0.0005871649643853574,0.9626036392558704,0.7959090909090909,0.5898752821119209,0.8355263157894737,0.8330533314104291,1.0,0.9044117647058824,1.6203214946546052,0.2,5.766289399995003
25,0.000585131522131068,0.9384022528474981,0.800340909090909,0.495624694071318,0.8578947368421053,0.8567447619531485,1.0,0.925,1.6219109786184212,0.2,5.795409499995003
26,0.0005829526898378601,0.965631311156533,0.7881818181818182,0.48858982889275804,0.8592105263157894,0.857493950197657,1.0,0.9294117647058824,1.623046875,0.2,5.779764699997031
27,0.0005806295804552395,0.9463956056941639,0.8002272727272727,0.4615444817041096,0.8671052631578947,0.8658110279056398,1.0,0.9382352941176471,1.6236173930921052,0.2,5.78063960000145
28,0.0005781633806295796,0.8842770507118919,0.8264772727272728,0.48515968134528714,0.8697368421052631,0.8690813023577982,1.0,0.9308823529411765,1.6251272101151315,0.2,5.780325799998536
29,0.0005755553500979822,0.9401962254264138,0.8044318181818182,0.5265130130868209,0.8723684210526316,0.870995114942182,1.0,0.9264705882352942,1.6255859375,0.2,5.783606599994528
30,0.0005728068210448012,0.8909475144472989,0.81625,0.5169619246533043,0.8381578947368421,0.8353034952882508,1.0,0.9,1.6267578125,0.2,5.756889600001159
31,0.0005699191974211625,0.8995385261015458,0.8228409090909091,0.7455317810962074,0.8421052631578947,0.8402101396695529,1.0,0.925,1.6275390625,0.2,5.762384800000291
32,0.0005668939542278249,0.9368395558270541,0.7994318181818182,0.47013588014401886,0.8631578947368421,0.8636593737785289,1.0,0.9308823529411765,1.6283113178453947,0.2,5.781079300002602
33,0.0005637326367617472,0.8704745782505382,0.8272727272727273,0.471260351570029,0.8828947368421053,0.8826270599220329,1.0,0.9382352941176471,1.6282701956598382,0.2,5.806118300002709
34,0.0005604368598267504,0.8784402511336586,0.8372727272727273,0.47069380848031295,0.8736842105263158,0.8736517204923228,1.0,0.9411764705882353,1.6289486546265453,0.2,5.755542400002014
35,0.0005570083069086733,0.8638271288438277,0.8292045454545455,0.4632182616936533,0.8868421052631579,0.8874449113996128,1.0,0.95,1.6285387541118421,0.2,5.769333399999596
36,0.0005534487293154471,0.8435606098175049,0.8314772727272727,0.4892621410520453,0.875,0.8746231856141978,1.0,0.9529411764705882,1.6278281726335224,0.2,6.078053999997792
37,0.0005497599452825259,0.8445985653183677,0.8301136363636363,0.49514829673265154,0.8644736842105263,0.8636069033526427,1.0,0.9323529411764706,1.626345342083981,0.2,5.920036200004688
38,0.0005459438390441295,0.8214433739402077,0.8429545454545454,0.4344342990925438,0.8723684210526316,0.8727508187499478,1.0,0.9426470588235294,1.6248599391234548,0.2,5.7868732000060845
39,0.0005420023598707758,0.7974643169749867,0.8580681818181818,0.4698023036906594,0.8894736842105263,0.8883405614585873,1.0,0.9411764705882353,1.6223838417153609,0.20526315789473684,5.8118392000033055
40,0.0005379375210735911,0.8320595663244074,0.845,0.47258152710764034,0.8842105263157894,0.8841415957481621,1.0,0.95,1.6189722977186505,0.2,5.787528200002271
41,0.0005337513989759092,0.8260820549184625,0.8514772727272727,0.5543970760546233,0.8394736842105263,0.8388130648559198,1.0,0.913235294117647,1.6139185830166465,0.2,5.772397600005206
42,0.0005294461318526833,0.834743881225586,0.8579545454545454,0.41260653702836286,0.9,0.8999431870991188,1.0,0.9661764705882353,1.6050408576664172,0.2,5.752862699999241
43,0.0005250239188382536,0.8060882212898948,0.8625,0.41677778739678234,0.875,0.8754701557588564,1.0,0.9485294117647058,1.5925781212354961,0.2013157894736842,5.779567000005045
44,0.0005204870188030272,0.8452643697912042,0.8448863636363636,0.48438641334834853,0.8776315789473684,0.8766964040107756,1.0,0.9455882352941176,1.571809468771282,0.21842105263157896,5.779584600000817
45,0.0005158377491996452,0.8121425535462119,0.8570454545454546,0.46137634013828477,0.881578947368421,0.8809791651307639,1.0,0.9382352941176471,1.5433876476789776,0.26710526315789473,5.774752499994065
46,0.0005110784848792257,0.8227778430418534,0.8518181818181818,0.43469426945636147,0.8828947368421053,0.8827499892509438,1.0,0.9426470588235294,1.5066990915097689,0.3026315789473684,5.776550700000371
47,0.0005062116568782877,0.7683631272749467,0.865909090909091,0.5110823584230323,0.8605263157894737,0.8595322114163368,1.0,0.9338235294117647,1.4579628404818084,0.3368421052631579,5.786263300004066
48,0.0005012397511769754,0.7705057642676614,0.86875,0.3981780811360008,0.881578947368421,0.8807193862006433,1.0,0.9338235294117647,1.396724660145609,0.3631578947368421,5.781183799997962
49,0.0004961653074292177,0.7892681191184304,0.8696590909090909,0.4712770418116921,0.8855263157894737,0.8855706325269914,1.0,0.9411764705882353,1.3206600810352125,0.4026315789473684,5.786706500002765
50,0.0004909909176654702,0.8113749803196301,0.8682954545454545,0.4353888765761727,0.8828947368421053,0.8814230677060892,1.0,0.9411764705882353,1.2366284834711174,0.4776315789473684,5.758860800000548
51,0.00048571922496870357,0.8271736201373013,0.8473863636363637,0.46556976092489144,0.8776315789473684,0.8764027114281271,1.0,0.9279411764705883,1.1548731741152312,0.5368421052631579,5.75195309999981
52,0.00048035292212431514,0.8200457245653325,0.8630681818181818,0.4452856154818284,0.8881578947368421,0.8885649284731716,1.0,0.9558823529411765,1.0655241313733552,0.6052631578947368,5.76255780000065
53,0.0004748947502446508,0.8059937178004871,0.8581818181818182,0.4088225913675208,0.8763157894736842,0.8757915770626348,1.0,0.9367647058823529,0.9855028666948017,0.6605263157894737,5.763088199993945
54,0.00046934749736884306,0.7993822745843367,0.8730681818181818,0.41268306468662463,0.8855263157894737,0.8849496880198509,1.0,0.9514705882352941,0.9076979768903632,0.7105263157894737,5.736088600002404
55,0.0004637139970386777,0.7298015828566118,0.8963636363636364,0.3555192589759827,0.9052631578947369,0.9052431863259891,1.0,0.95,0.8205932610913327,0.7526315789473684,5.768190599999798
56,0.000457997126851218,0.7693201175602999,0.88125,0.43407884146037856,0.8828947368421053,0.8832716067504025,1.0,0.9485294117647058,0.7402080331978045,0.7802631578947369,5.781056699997862
57,0.00045219980698892607,0.7794547120007602,0.8754545454545455,0.4395170105131049,0.881578947368421,0.8805192464479801,1.0,0.9426470588235294,0.6797898148235522,0.8,5.752308399998583
58,0.0004463249987280305,0.7204325563257391,0.8968181818181818,0.40810217512281316,0.8907894736842106,0.8911269673513675,1.0,0.9588235294117647,0.6213104248046875,0.825,5.762150399998063
59,0.000440375702925904,0.759510052204132,0.8826136363636363,0.3913459944097619,0.8934210526315789,0.8930454792212768,1.0,0.9573529411764706,0.5828592407075982,0.8447368421052631,5.786279400002968
60,0.0004343549584882226,0.7041412643952804,0.8967045454545455,0.40201853733313714,0.8894736842105263,0.8886704408396986,1.0,0.9455882352941176,0.5439147952355836,0.8605263157894737,5.776746000003186
61,0.00042826584081669025,0.7513829666917974,0.8901136363636364,0.4474330345266744,0.868421052631579,0.8688271653776498,1.0,0.9382352941176471,0.5144854087578623,0.875,5.8019476999979815
62,0.00042211146023812037,0.6888050038164312,0.9046590909090909,0.4590299904346466,0.8789473684210526,0.8780610622657015,1.0,0.95,0.48719972372055054,0.8723684210526316,5.7911997999981395
63,0.0004158949604156783,0.7388269727880304,0.8944318181818182,0.3925055720304188,0.9105263157894737,0.9101449463739479,1.0,0.9588235294117647,0.46726299116486,0.8789473684210526,5.777910199998587
64,0.0004096195167430953,0.7356564010273327,0.8964772727272727,0.4008644104003906,0.8881578947368421,0.8884004767198418,1.0,0.9558823529411765,0.4553519807363811,0.8868421052631579,5.772068400001444
65,0.0004032883347226749,0.6593590337579901,0.9227272727272727,0.3864683935516759,0.9105263157894737,0.9090900990735289,1.0,0.9602941176470589,0.4392802994502218,0.8894736842105263,5.7809253000014
66,0.0003969046483279189,0.6828931927680969,0.9076136363636363,0.3977102169865056,0.8986842105263158,0.8990005530338605,1.0,0.9485294117647058,0.42688976024326525,0.8921052631578947,5.782807700001285
67,0.0003904717183516109,0.693591387163509,0.9082954545454546,0.4238354079033199,0.8710526315789474,0.8702565469220451,1.0,0.9279411764705883,0.41743364898782026,0.8947368421052632,5.759768500000064
68,0.0003839928307402005,0.7232330666888844,0.9006818181818181,0.42049058644395126,0.9,0.899058281904263,1.0,0.9573529411764706,0.41272655380399603,0.8986842105263158,5.753404600000067
69,0.00037747129491533916,0.6967095843228427,0.9103409090909091,0.37177203266244185,0.9013157894736842,0.9010333007967308,1.0,0.9632352941176471,0.40772881790211324,0.8986842105263158,5.7528640999953495
70,0.0003709104420834241,0.7242786685986953,0.9022727272727272,0.3750799185351322,0.9105263157894737,0.9102688117849072,1.0,0.9676470588235294,0.404055465836274,0.9,5.7617657000009785
71,0.00036431362353401533,0.7185083315589211,0.9110227272727273,0.4003233247681668,0.8947368421052632,0.8948465352674198,1.0,0.9558823529411765,0.4013390788906499,0.8973684210526316,5.760708499998145
72,0.0003576842089279937,0.6670139726725491,0.9151136363636364,0.4503911062290794,0.8947368421052632,0.8939674294497291,1.0,0.9632352941176471,0.3958553919666692,0.8973684210526316,5.769661800004542
73,0.0003510255845763356,0.678254684751684,0.9157954545454545,0.39007656731103596,0.8960526315789473,0.8957179312406541,1.0,0.9514705882352941,0.39207988569610996,0.9013157894736842,5.745937899999262
74,0.0003443411517103819,0.6749139738082885,0.9123863636363636,0.4374262762697119,0.8697368421052631,0.8688332595696948,1.0,0.9352941176470588,0.3877605246870141,0.9078947368421053,5.7666719000044395
75,0.0003376343247444856,0.6792292536388744,0.9159090909090909,0.4306900005591543,0.8736842105263158,0.8723560087929147,1.0,0.9338235294117647,0.38448068625048587,0.9078947368421053,5.782220000000962
76,0.0003309085295319264,0.7629950753125277,0.8868181818181818,0.43715197883154217,0.8960526315789473,0.8957880289626038,1.0,0.9485294117647058,0.3888026177883148,0.9092105263157895,5.814997599998605
77,0.0003241672016149815,0.6953186841444535,0.9163636363636364,0.3954506321957237,0.8907894736842106,0.8906377911856713,1.0,0.9514705882352941,0.3906612204877954,0.9078947368421053,5.752176899994083
78,0.00031741378447004763,0.66976520429958,0.9260227272727273,0.39235422328898784,0.8842105263157894,0.8835805363633223,1.0,0.9441176470588235,0.3899248625102796,0.9092105263157895,5.740085299999919
79,0.00031065172774871004,0.6436424167589708,0.9345454545454546,0.42318219542503355,0.8921052631578947,0.8918335315115309,1.0,0.9485294117647058,0.38654929775940744,0.9092105263157895,5.774704700001166
80,0.00030388448551565744,0.6789696621894836,0.9244318181818182,0.40090588927268983,0.8986842105263158,0.898046522704887,1.0,0.9588235294117647,0.3843995753087496,0.906578947368421,5.749765400003525
81,0.0002971155144843426,0.6942612156001005,0.9169318181818182,0.4209629265885604,0.8947368421052632,0.894097211195797,1.0,0.9588235294117647,0.3860619792812749,0.9052631578947369,5.75623920000362
82,0.0002903482722512899,0.6389997824755582,0.9372727272727273,0.388477686518117,0.8986842105263158,0.8985100538829103,1.0,0.9588235294117647,0.3844557909589065,0.9052631578947369,5.75447659999918
83,0.0002835862155299524,0.6649640230699019,0.9217045454545455,0.41088048000084726,0.8921052631578947,0.8916954051272873,1.0,0.95,0.38470073467806765,0.9078947368421053,5.746037400000205
84,0.00027683279838501855,0.6678677827661688,0.9334090909090909,0.413655330946571,0.8842105263157894,0.8837041451804387,1.0,0.9573529411764706,0.38620669779024625,0.9078947368421053,5.768466300003638
85,0.00027009147046807365,0.6593089201233604,0.9340909090909091,0.3853831250416605,0.8960526315789473,0.8952599016627822,1.0,0.9602941176470589,0.38654239114962125,0.906578947368421,5.77655919999961
86,0.0002633656752555145,0.6400389248674566,0.9371590909090909,0.3882099349247782,0.8868421052631579,0.8862004747119364,1.0,0.9544117647058824,0.38803550255926034,0.9013157894736842,5.77237420000165
87,0.00025665884828961807,0.6692896983840249,0.928409090909091,0.4229645584758959,0.8960526315789473,0.894957707394511,1.0,0.9573529411764706,0.38874913171717995,0.9052631578947369,5.777095999997982
88,0.00024997441542366436,0.6772936729951339,0.9176136363636364,0.45479366904810853,0.8934210526315789,0.8936147837380067,1.0,0.9661764705882353,0.3894626808793921,0.906578947368421,5.772698100001435
89,0.00024331579107200632,0.6601109603318301,0.9214772727272728,0.41064935044238443,0.9092105263157895,0.9087427197226303,1.0,0.9544117647058824,0.38861132264137266,0.9052631578947369,5.7833235999933095
90,0.0002366863764659847,0.6763656751676039,0.9165909090909091,0.38758753663615175,0.9026315789473685,0.9024732424214681,1.0,0.9705882352941176,0.38952974049668565,0.9026315789473685,5.785880499999621
91,0.0002300895579165759,0.6576447043635628,0.9331818181818182,0.3952068134358055,0.8881578947368421,0.8875478601166235,1.0,0.9602941176470589,0.3887354000618583,0.9039473684210526,5.776798999999301
92,0.0002235287050846607,0.6564286383715543,0.9327272727272727,0.37924451263327347,0.9052631578947369,0.9046774841010772,1.0,0.9676470588235294,0.38762022350963793,0.9039473684210526,5.782418599999801
93,0.00021700716925979942,0.6363299384984104,0.9436363636363636,0.4297049669842971,0.8855263157894737,0.8853444317671058,1.0,0.9544117647058824,0.38595573055116755,0.9013157894736842,5.760075999998662
94,0.00021052828164838913,0.6460991516980258,0.9430681818181819,0.39925344366776316,0.8894736842105263,0.8895719699942083,1.0,0.961764705882353,0.38536561570669475,0.9026315789473685,5.787110699995537
95,0.00020409535167208103,0.6436555227366361,0.9353409090909091,0.42084575420931764,0.9039473684210526,0.9034955620658524,1.0,0.9676470588235294,0.3850215704817521,0.9026315789473685,5.801912299997639
96,0.00019771166527732506,0.638454840074886,0.9280681818181818,0.3891419260125411,0.9118421052631579,0.911582516696717,1.0,0.9705882352941176,0.3833743440477472,0.9039473684210526,5.788402199999837
97,0.00019138048325690465,0.6366276879744096,0.9413636363636364,0.3968860826994243,0.8986842105263158,0.898432148212498,1.0,0.9720588235294118,0.38172751978824015,0.9078947368421053,5.742432599996391
98,0.00018510503958432174,0.6698423624038696,0.9275,0.39289502501487733,0.9,0.8998020137634051,1.0,0.9588235294117647,0.38289039981992623,0.9078947368421053,5.782140700001037
99,0.0001788885397618797,0.6318613342805343,0.9381818181818182,0.3909955482733877,0.9013157894736842,0.9009374481097959,1.0,0.9529411764705882,0.3826592686929201,0.9052631578947369,5.764118799997959
100,0.00017273415918330973,0.6745848238468171,0.9223863636363636,0.3723026473271219,0.9013157894736842,0.9011509233641384,1.0,0.9676470588235294,0.38355913726907026,0.9078947368421053,5.772046400001273
101,0.00016664504151177735,0.6329991191083735,0.9422727272727273,0.40012560424051785,0.8907894736842106,0.8904846551843493,1.0,0.9558823529411765,0.3833349921201405,0.9026315789473685,5.755192700002226
102,0.00016062429707409598,0.6265266442298889,0.9490909090909091,0.3963454393964065,0.881578947368421,0.8809748742472925,1.0,0.9573529411764706,0.38182236552238463,0.9039473684210526,5.753741299995454
103,0.00015467500127196946,0.6083631873130798,0.9498863636363636,0.3732184963790994,0.9078947368421053,0.907878314777147,1.0,0.9632352941176471,0.37957273878549275,0.9013157894736842,5.784195100000943
104,0.0001488001930110739,0.6712749515880237,0.9305681818181818,0.39097024986618445,0.9,0.8998953120727717,1.0,0.9691176470588235,0.37916557004577234,0.9052631578947369,5.770304799996666
105,0.00014300287314878202,0.6223440400036898,0.9457954545454546,0.4403768429630681,0.9026315789473685,0.9023067501944755,1.0,0.9544117647058824,0.3781068510130832,0.9052631578947369,5.7828021999957855
106,0.00013728600296132235,0.6433601595054973,0.9397727272727273,0.38049942819695726,0.8973684210526316,0.8971521493127433,1.0,0.9632352941176471,0.3779068793121137,0.906578947368421,5.782517300001928
107,0.00013165250263115694,0.6346148839863864,0.9421590909090909,0.41448870269875776,0.9026315789473685,0.9022837992190365,1.0,0.9735294117647059,0.37753922374624954,0.9092105263157895,5.780378000003111
108,0.0001261052497553492,0.614267409064553,0.9513636363636364,0.3638419697159215,0.9171052631578948,0.9168112365779273,1.0,0.9691176470588235,0.3753590637131741,0.9131578947368421,5.8103908999983105
109,0.0001206470778756849,0.6124219753525474,0.9522727272727273,0.45908444053248354,0.8947368421052632,0.894532039513434,1.0,0.9514705882352941,0.37458287320638955,0.9131578947368421,5.771404099999927
110,0.0001152807750312964,0.6317983026938004,0.9388636363636363,0.3959824414629685,0.9171052631578948,0.9169618669897412,1.0,0.9691176470588235,0.37513267115542764,0.9105263157894737,5.760388000002422
111,0.00011000908233452982,0.6186773122440685,0.9484090909090909,0.4168792724609375,0.9039473684210526,0.9035880726019151,1.0,0.9647058823529412,0.37565170997067504,0.9118421052631579,5.7824029000039445
112,0.00010483469257078224,0.6184547953172164,0.9394318181818182,0.4147096342162082,0.9013157894736842,0.9011441593729146,1.0,0.9632352941176471,0.37676785086330616,0.9118421052631579,5.774900600001274
113,9.976024882302456e-05,0.6418770616704768,0.9482954545454545,0.42262822170006603,0.9026315789473685,0.9021945637239168,1.0,0.9632352941176471,0.37815391201721993,0.9092105263157895,5.749926399999822
114,9.478834312171236e-05,0.6267153479836204,0.9427272727272727,0.4025788956566861,0.8986842105263158,0.8988419232039814,1.0,0.9647058823529412,0.37891347816115933,0.9078947368421053,5.7708860999991884
115,8.992151512077429e-05,0.61438015981154,0.9572727272727273,0.4080608970240543,0.9092105263157895,0.908860912720073,1.0,0.9661764705882353,0.379345944366957,0.9092105263157895,5.780033499999263
116,8.516225080035476e-05,0.6137241094762629,0.9530681818181819,0.4009756781552967,0.8868421052631579,0.8855052116683442,1.0,0.9588235294117647,0.38035470968798585,0.9078947368421053,5.766922800001339
117,8.051298119697266e-05,0.6290227994051847,0.9472727272727273,0.4358234603154032,0.8881578947368421,0.887805509177733,1.0,0.9588235294117647,0.381556541041324,0.9078947368421053,5.760239300005196
118,7.597608116174637e-05,0.6078046252510765,0.9538636363636364,0.3594987574376558,0.8986842105263158,0.8982763527054557,1.0,0.9661764705882353,0.3828466305607244,0.906578947368421,5.765229399999953
119,7.155386814731662e-05,0.6079119698567824,0.9430681818181819,0.37701138979510257,0.8934210526315789,0.8931385520779106,1.0,0.9602941176470589,0.3834532075806668,0.9052631578947369,5.756366100002197
120,6.724860102409081e-05,0.6196536374092102,0.9457954545454546,0.3953332991976487,0.9,0.8994844961885058,1.0,0.9676470588235294,0.38449482133514,0.9039473684210526,5.778844200001913
121,6.306247892640888e-05,0.5856661113825712,0.9634090909090909,0.40222175968320745,0.8947368421052632,0.8944305155915627,1.0,0.961764705882353,0.3830059653834293,0.9052631578947369,5.752229099998658
122,5.899764012922409e-05,0.6045370052077553,0.9585227272727272,0.41636135672268115,0.8986842105263158,0.8985375018698314,1.0,0.9661764705882353,0.3825283646583557,0.9013157894736842,5.749459799997567
123,5.5056160955870474e-05,0.6307178196040066,0.9457954545454546,0.42066778917061654,0.8947368421052632,0.8942979304221688,1.0,0.9720588235294118,0.3838978820725491,0.9013157894736842,5.770328400001745
124,5.1240054717474066e-05,0.6443959255651994,0.9443181818181818,0.4056581995989147,0.8947368421052632,0.8944899252485825,1.0,0.9691176470588235,0.3858674695617274,0.9039473684210526,5.77629529999831
125,4.755127068455278e-05,0.5889151820269498,0.9571590909090909,0.3885288034614764,0.9026315789473685,0.9023140334019837,1.0,0.9676470588235294,0.3849431888053292,0.9013157894736842,5.79656999999861
126,4.399169309132677e-05,0.6337792496247725,0.9473863636363636,0.39943124777392336,0.9,0.8994337437322344,1.0,0.9720588235294118,0.3858477147001969,0.9,5.789389099998516
127,4.0563140173249585e-05,0.6143063434687528,0.9590909090909091,0.38907655352040343,0.9039473684210526,0.9037759520717035,1.0,0.9691176470588235,0.38545411793809187,0.8986842105263158,5.791831500006083
128,3.726736323825278e-05,0.6386956028504805,0.9503409090909091,0.40695816843133226,0.8894736842105263,0.8891198328049732,1.0,0.9573529411764706,0.3861338574635355,0.8986842105263158,5.907900199999858
129,3.41060457721751e-05,0.6211964496699246,0.9498863636363636,0.3883477465102547,0.8973684210526316,0.8968249511474042,1.0,0.9647058823529412,0.3862731139910848,0.8986842105263158,5.7869133000058355
130,3.1080802578837415e-05,0.5897879815101623,0.9555681818181818,0.38515512566817434,0.9039473684210526,0.9037071220866691,1.0,0.9705882352941176,0.3848858472548033,0.8986842105263158,5.763488200005668
131,2.8193178955198895e-05,0.6214492171460932,0.9494318181818182,0.3898251989954396,0.8947368421052632,0.8948284645889203,1.0,0.9573529411764706,0.38620268075089703,0.8986842105263158,5.7791084999989835
132,2.544464990201774e-05,0.572850948788903,0.9667045454545454,0.3779806839792352,0.8973684210526316,0.8971868363720267,1.0,0.9676470588235294,0.38499804139137267,0.8973684210526316,5.774417699998594
133,2.283661937042025e-05,0.6066995097290386,0.94875,0.3879983189858888,0.9,0.8999280278913184,1.0,0.9632352941176471,0.3852284472239645,0.8973684210526316,5.772851299996546
134,2.0370419544760518e-05,0.6182194805145264,0.9470454545454545,0.4247961740744741,0.8934210526315789,0.8932543460043256,1.0,0.9632352941176471,0.38535525610572413,0.8973684210526316,5.776245699998981
135,1.804731016213988e-05,0.6115354446931319,0.9494318181818182,0.4000457754260615,0.8934210526315789,0.892905498281214,1.0,0.9573529411764706,0.38663370326945656,0.8960526315789473,5.7401528999980655
136,1.5868477868931964e-05,0.6088653659820557,0.9535227272727272,0.3735138751958546,0.9,0.8997979551021438,1.0,0.9676470588235294,0.38766029822198966,0.8973684210526316,5.791976600005
137,1.3835035614642541e-05,0.5925526837869124,0.9581818181818181,0.38817219028347416,0.9013157894736842,0.901384949199886,1.0,0.9632352941176471,0.3869416095708546,0.8986842105263158,5.763240799999039
138,1.1948022083414199e-05,0.6353905087167566,0.9454545454545454,0.37322813272476196,0.9,0.8997531451320269,1.0,0.9647058823529412,0.38821017585302653,0.8973684210526316,5.761821899999632
139,1.0208401163465185e-05,0.6176929463039745,0.9519318181818182,0.4044418328686764,0.9,0.8996337058709833,1.0,0.9647058823529412,0.3883357800935444,0.8986842105263158,5.797466000003624
140,8.617061454734755e-06,0.6219833744655956,0.9473863636363636,0.4051610049448515,0.9013157894736842,0.9011819489673011,1.0,0.961764705882353,0.3889576155888407,0.8960526315789473,5.778910299995914
141,7.1748158149852224e-06,0.5690874810652299,0.9613636363636363,0.38420369954485645,0.9,0.8998582242424785,1.0,0.9588235294117647,0.38769836394410384,0.8947368421052632,5.778831099996751
142,5.882400944593751e-06,0.5862677504799583,0.9588636363636364,0.3942732964691363,0.8947368421052632,0.8945008716540437,1.0,0.9647058823529412,0.3873389799343912,0.8947368421052632,5.768062999995891
143,4.740477010244959e-06,0.6131282971122048,0.9635227272727273,0.3937439959300192,0.8934210526315789,0.8931897972708243,1.0,0.9661764705882353,0.3873786530996624,0.8947368421052632,5.753579500000342
144,3.7496273077172435e-06,0.5704193178090182,0.9628409090909091,0.39225094537985955,0.9,0.899785613172434,1.0,0.9661764705882353,0.3863955855369568,0.8960526315789473,5.773818099994969
145,2.9103579639347222e-06,0.62847383889285,0.9511363636363637,0.36640564862050506,0.9,0.8997739603626362,1.0,0.9661764705882353,0.38732902156679255,0.8934210526315789,5.771998500000336
146,2.223097678437247e-06,0.6775291728973388,0.9239772727272727,0.40248228342909564,0.9,0.899764863279455,1.0,0.9647058823529412,0.3896895568621786,0.8947368421052632,5.799609100002272
147,1.6881975044002091e-06,0.5890994865244085,0.9568181818181818,0.3862686954046551,0.8960526315789473,0.8957961020015921,1.0,0.9691176470588235,0.38940469873578926,0.8947368421052632,5.787551699999312
148,1.3059306693162125e-06,0.6345192900570956,0.9405681818181818,0.40814594406830634,0.8960526315789473,0.8960721260338669,1.0,0.961764705882353,0.39054220130569056,0.8947368421052632,5.748203700000886
149,1.0764924354303636e-06,0.6402722254666415,0.9445454545454546,0.4202594148485284,0.8973684210526316,0.8971862963493746,1.0,0.9676470588235294,0.3916247719212582,0.8947368421052632,5.7626138999985415
150,1e-06,0.5915566314350474,0.9576136363636364,0.3880182372896295,0.8960526315789473,0.8959963111298249,1.0,0.9691176470588235,0.39049088390249953,0.8947368421052632,5.763610100002552
