epoch,lr,train_loss,train_accuracy,val_loss,val_accuracy,val_macro_f1,val_trial_accuracy,val_k3,ema_loss,ema_accuracy,seconds
1,5.9999999999999995e-05,1.303202363361012,0.51875,0.9796424828077618,0.5973684210526315,0.5843981659535599,0.8,0.6426470588235295,1.6109888992811505,0.2,14.26866880000307
2,0.00011999999999999999,1.0976406810500405,0.6647727272727273,0.6153494157289204,0.7578947368421053,0.7502816239471211,0.95,0.8294117647058824,1.6186047980659886,0.2,14.060737600004359
3,0.00018,0.9630641583962875,0.7581818181818182,0.5461310844672354,0.8078947368421052,0.8098798279445415,1.0,0.8705882352941177,1.643480164126346,0.2,14.113854399998672
4,0.00023999999999999998,0.9146245230327953,0.7923863636363636,0.4614128821774533,0.8460526315789474,0.8470536106213146,0.975,0.9102941176470588,1.7091077340276617,0.2,14.0921989999988
5,0.0003,0.8457196914065968,0.824659090909091,0.45596704953595213,0.8407894736842105,0.8429327446292441,1.0,0.8808823529411764,1.8376227140426635,0.2,14.092732899996918
6,0.00035999999999999997,0.818697672107003,0.8402272727272727,0.49059406017002305,0.8381578947368421,0.8350206575072999,0.975,0.8897058823529411,2.013218931147927,0.2,14.078674199998204
7,0.00042,0.8405438249761408,0.8452272727272727,0.44215824666776155,0.8592105263157894,0.8563826509137253,0.975,0.8926470588235295,2.2518108170283466,0.2,14.11067770000227
8,0.0004799999999999999,0.8294926691055298,0.84625,0.46625357113386456,0.8263157894736842,0.8294392307831201,0.975,0.8735294117647059,2.4879532672856985,0.2,14.120592499995837
9,0.00054,0.8076001004739242,0.8482954545454545,0.428444873031817,0.868421052631579,0.8677817750737511,1.0,0.9176470588235294,2.731057258342442,0.2,14.113911100001133
10,0.0005999999999999998,0.7358418265256015,0.8751136363636364,0.3906357611480512,0.8526315789473684,0.8542392000256518,0.975,0.913235294117647,2.943995746499614,0.2,14.092333199994755
11,0.0006,0.7576901071721858,0.8854545454545455,0.3797645568847656,0.881578947368421,0.8821732299169488,1.0,0.9338235294117647,3.1297967211196296,0.2,14.129754499997944
12,0.0005999235075645696,0.7527955131097274,0.8855681818181819,0.4340555504748696,0.8578947368421053,0.8575349506899016,1.0,0.9147058823529411,3.263450863486842,0.2,14.091446500002348
13,0.0005996940693306837,0.7884604397687045,0.8726136363636363,0.46489659328209726,0.8526315789473684,0.8529233440588534,1.0,0.9058823529411765,3.285511217932952,0.2,14.10431470000185
14,0.0005993118024955998,0.7512196516990661,0.8820454545454546,0.35393245094700865,0.9026315789473685,0.9032477283658885,1.0,0.9602941176470589,3.321154463291168,0.2,14.067714299999352
15,0.0005987769023215627,0.7270768321644177,0.8993181818181818,0.4889651640465385,0.8381578947368421,0.8374083010372079,1.0,0.9117647058823529,3.425169935351924,0.2,14.100558799997088
16,0.0005980896420360653,0.7575537330454046,0.8919318181818182,0.4677167490908974,0.8381578947368421,0.8388937449757309,1.0,0.9044117647058824,3.416728772301423,0.2,14.094124199997168
17,0.0005972503726922827,0.716390975822102,0.9082954545454546,0.4418680096927442,0.8644736842105263,0.8638184550039053,1.0,0.9235294117647059,3.4448929617279456,0.2,14.123044599997229
18,0.0005962595229897549,0.7199367226253857,0.9040909090909091,0.4275886344282251,0.8539473684210527,0.8521547967006591,0.975,0.913235294117647,3.478301039494966,0.2026315789473684,14.121935800001665
19,0.0005951175990554061,0.6765764589743181,0.9186363636363636,0.4133696907445004,0.8697368421052631,0.8703586368623167,1.0,0.9338235294117647,3.5667117489011666,0.2,14.09705699999904
20,0.0005938251841850148,0.7330262887477875,0.9039772727272727,0.4620756055179395,0.8407894736842105,0.8457592833986318,0.975,0.8941176470588236,3.6134916619250648,0.2013157894736842,14.107726800000819
21,0.0005923829385452652,0.7035687419501218,0.920340909090909,0.46692336295780384,0.8407894736842105,0.8389667727651062,0.95,0.8808823529411764,3.6390711734169408,0.2013157894736842,14.116703699997743
22,0.0005907915988365347,0.6455557285655629,0.9282954545454546,0.4581432540165751,0.8421052631578947,0.8389764138281379,0.975,0.9029411764705882,3.6650419548938147,0.20921052631578949,14.084873200001311
23,0.0005890519779165858,0.6477231491695751,0.9361363636363637,0.4124202326724404,0.8671052631578947,0.8658964875442706,0.975,0.9235294117647059,3.685496924425426,0.22236842105263158,14.099478099997214
24,0.0005871649643853574,0.6804579455202276,0.9219318181818181,0.5960278961219285,0.8052631578947368,0.8064194372334391,0.95,0.8411764705882353,3.7054570267074984,0.21842105263157896,14.089475599997968
25,0.000585131522131068,0.6872280638868159,0.9227272727272727,0.47866042256355285,0.8421052631578947,0.8427945962362733,0.975,0.9044117647058824,3.7372974615348014,0.24473684210526317,14.100490600001649
26,0.0005829526898378601,0.7142391371726989,0.9076136363636363,0.4964641382819728,0.8513157894736842,0.849944322275842,1.0,0.9161764705882353,3.7017752399570063,0.21710526315789475,14.15745379999862
27,0.0005806295804552395,0.7093042935024608,0.92875,0.4311389320775082,0.8539473684210527,0.853766272713995,1.0,0.9264705882352942,3.6217439340917688,0.21578947368421053,14.235048099995765
28,0.0005781633806295796,0.6504312901063399,0.9323863636363636,0.501764317248997,0.8315789473684211,0.8293228652783433,0.975,0.8970588235294118,3.483904788054918,0.21710526315789475,14.147040600000764
29,0.0005755553500979822,0.6645666999166662,0.9251136363636364,0.46599980216277276,0.8513157894736842,0.8483652743652744,0.95,0.9044117647058824,3.3419300686371955,0.21973684210526315,14.112979099998483
30,0.0005728068210448012,0.6401659697836095,0.9370454545454545,0.4668899943954066,0.85,0.84632163173358,0.975,0.9058823529411765,3.1955062063116775,0.225,14.117821400002867
31,0.0005699191974211625,0.6660158061981201,0.9377272727272727,0.4692496243276094,0.8592105263157894,0.8572954813450675,0.975,0.9117647058823529,3.0119077980518343,0.23026315789473684,14.121988899998541
32,0.0005668939542278249,0.7219819870862094,0.9144318181818182,0.5327308256375162,0.8263157894736842,0.8292890497026744,0.975,0.8897058823529411,2.7353168282069658,0.24868421052631579,14.319273599998269
33,0.0005637326367617472,0.6349391909079118,0.9517045454545454,0.45546626103551763,0.8605263157894737,0.8595097474213999,0.975,0.9117647058823529,2.444352079849494,0.2789473684210526,14.182844100003422
34,0.0005604368598267504,0.6855899436907334,0.9220454545454545,0.48972653777975783,0.8328947368421052,0.8330029083778386,0.975,0.8985294117647059,2.0959728841718874,0.34868421052631576,14.103786599996965
35,0.0005570083069086733,0.5949252007224343,0.959659090909091,0.5352481842041016,0.8263157894736842,0.8259227373910063,0.975,0.8852941176470588,1.7973052576968545,0.4263157894736842,14.105447200003255
36,0.0005534487293154471,0.633290387392044,0.9404545454545454,0.4021263514694415,0.8723684210526316,0.872702006717352,0.975,0.9352941176470588,1.4827307048596834,0.5118421052631579,14.105921399997897
37,0.0005497599452825259,0.6844818778471513,0.9286363636363636,0.42645452336261147,0.8671052631578947,0.8655475819128988,0.975,0.9264705882352942,1.2117891416737907,0.5697368421052632,14.088098000000173
38,0.0005459438390441295,0.632706212347204,0.9422727272727273,0.41240876818958083,0.8657894736842106,0.8673552245038281,1.0,0.925,0.9830519825220108,0.6434210526315789,14.116697699995711
39,0.0005420023598707758,0.6157997590845281,0.9523863636363636,0.49143881515452736,0.8381578947368421,0.8369695159982194,0.975,0.8823529411764706,0.8080329895019531,0.6894736842105263,14.105832500004908
40,0.0005379375210735911,0.6339070027524775,0.9440909090909091,0.4543995916843414,0.8565789473684211,0.8567152983571521,1.0,0.9191176470588235,0.668414507257311,0.7552631578947369,14.098282999999356
41,0.0005337513989759092,0.6375566838004373,0.9404545454545454,0.4379222267552426,0.8618421052631579,0.8611810263861444,1.0,0.9294117647058824,0.5772593647241593,0.8,14.09673710000061
42,0.0005294461318526833,0.6778906640139493,0.9344318181818182,0.44143335254568805,0.875,0.8750588043905505,1.0,0.9294117647058824,0.5252490791835283,0.8236842105263158,14.10683269999572
43,0.0005250239188382536,0.6423172757842324,0.9398863636363637,0.45320498880587123,0.85,0.8527370587893186,1.0,0.9147058823529411,0.4913006842136383,0.8302631578947368,14.146379600002547
44,0.0005204870188030272,0.6390707528591156,0.9353409090909091,0.4520548767165134,0.8552631578947368,0.856908253759217,0.975,0.9176470588235294,0.4599477667557566,0.8486842105263158,14.114935900004639
45,0.0005158377491996452,0.6370951156182723,0.9480681818181819,0.478011963869396,0.8513157894736842,0.8495142000912133,1.0,0.9205882352941176,0.4369395208986182,0.8644736842105263,14.092674999999872
46,0.0005110784848792257,0.6477886092662811,0.9410227272727273,0.4877357476635983,0.8368421052631579,0.8363420682432136,0.975,0.9029411764705882,0.4258424460887909,0.8644736842105263,14.090190499999153
47,0.0005062116568782877,0.622754429470409,0.9492045454545455,0.45284355659233894,0.8565789473684211,0.8565261150249249,1.0,0.9382352941176471,0.4141812779401478,0.868421052631579,14.134685400000308
48,0.0005012397511769754,0.6151591829820112,0.9534090909090909,0.595251022514544,0.7921052631578948,0.792277781329615,0.925,0.8529411764705882,0.40773516203227794,0.8723684210526316,14.14416329999949
49,0.0004961653074292177,0.595529454946518,0.9580681818181818,0.4592227728743302,0.8578947368421053,0.8563384450068889,1.0,0.9102941176470588,0.4059221377498225,0.8736842105263158,14.1016907000012
50,0.0004909909176654702,0.586078622341156,0.9627272727272728,0.4724964347324873,0.8526315789473684,0.8531802722691506,0.975,0.9191176470588235,0.4063329605679763,0.8763157894736842,14.09211409999989
51,0.00048571922496870357,0.6078442176905545,0.949659090909091,0.4968032027545728,0.8421052631578947,0.8419131603874567,1.0,0.9117647058823529,0.4062630091842852,0.8789473684210526,14.112693700000818
52,0.00048035292212431514,0.6483025062084198,0.9331818181818182,0.40765645849077325,0.8644736842105263,0.865820186758832,0.975,0.9308823529411765,0.40534286530394303,0.881578947368421,14.100001699996938
53,0.0004748947502446508,0.6073408902775158,0.9582954545454545,0.49988700276926945,0.843421052631579,0.8428866961397443,0.975,0.9,0.4048976292735652,0.8776315789473684,14.08520920000592
54,0.00046934749736884306,0.6177180303226818,0.9561363636363637,0.4219465560034702,0.8763157894736842,0.8773576085606184,0.975,0.9382352941176471,0.4014917872453991,0.8789473684210526,14.069091199999093
55,0.0004637139970386777,0.664716177853671,0.9425,0.4143757879734039,0.8763157894736842,0.8761565742666072,0.975,0.9367647058823529,0.39910715912517747,0.8802631578947369,14.107014699999127
56,0.000457997126851218,0.6134254158626903,0.9572727272727273,0.4341324254086143,0.8539473684210527,0.8542619032534227,0.975,0.9176470588235294,0.3989224480955224,0.8789473684210526,14.097886199997447
57,0.00045219980698892607,0.6091689849983563,0.9531818181818181,0.4524736103258635,0.8697368421052631,0.8708656452965882,0.975,0.9367647058823529,0.3970985814144737,0.8789473684210526,14.127181700001529
58,0.0004463249987280305,0.6245592933351344,0.9454545454545454,0.42855172470996256,0.8697368421052631,0.8716818936349089,0.975,0.9279411764705883,0.3948473484892594,0.8802631578947369,14.099028199998429
59,0.000440375702925904,0.6077887491746382,0.9440909090909091,0.45862611406727843,0.843421052631579,0.8449762920824814,0.975,0.9088235294117647,0.39342177604374134,0.8789473684210526,14.095353900003829
60,0.0004343549584882226,0.6202687950567766,0.9444318181818182,0.4655101556526987,0.8421052631578947,0.8430349612511486,1.0,0.9088235294117647,0.39303717393624155,0.8802631578947369,14.094612799999595
61,0.00042826584081669025,0.6281403771313754,0.946590909090909,0.4982908540650418,0.8315789473684211,0.8302768366664098,0.975,0.9205882352941176,0.3964427345677426,0.875,14.0919447999986
62,0.00042211146023812037,0.6246665983850306,0.9521590909090909,0.46953582763671875,0.8460526315789474,0.845544245759845,1.0,0.9205882352941176,0.3979465691666854,0.875,14.10822239999834
63,0.0004158949604156783,0.6003097198226235,0.9559090909090909,0.49749751812533327,0.843421052631579,0.8433905312643455,0.975,0.8955882352941177,0.39847644912569147,0.875,14.121726800003671
64,0.0004096195167430953,0.583455069065094,0.9635227272727273,0.46926229407912806,0.8486842105263158,0.8487808067797665,0.975,0.9058823529411765,0.3975367103752337,0.875,14.096217999998771
65,0.0004032883347226749,0.5907403226332231,0.9597727272727272,0.5119473109119816,0.8368421052631579,0.8363670917437298,1.0,0.8852941176470588,0.3989814359890787,0.8763157894736842,14.095204400000512
66,0.0003969046483279189,0.6164044788750735,0.9513636363636364,0.4623968220070789,0.8552631578947368,0.8557565865083155,0.975,0.9,0.3993926603543131,0.8736842105263158,14.10270070000115
67,0.0003904717183516109,0.6139757419716229,0.9597727272727272,0.4454025676375941,0.8592105263157894,0.8573865217436552,1.0,0.925,0.3990018333259382,0.8723684210526316,14.090318300004583
68,0.0003839928307402005,0.5955836880207062,0.9681818181818181,0.4684338224561591,0.8421052631578947,0.8443203819618119,0.975,0.9161764705882353,0.40050386064930965,0.8736842105263158,14.082355599995935
69,0.00037747129491533916,0.6254710470546375,0.9463636363636364,0.4526201743828623,0.8592105263157894,0.8579980114052541,1.0,0.9117647058823529,0.4028452019942434,0.8697368421052631,14.10990679999668
70,0.0003709104420834241,0.5903435854478316,0.9607954545454546,0.44332351684570315,0.8592105263157894,0.8592998585864299,1.0,0.9205882352941176,0.4034497317514921,0.8697368421052631,14.089509099998395
71,0.00036431362353401533,0.5822668256542899,0.9651136363636363,0.4433743922333968,0.8592105263157894,0.8584749736254345,1.0,0.9294117647058824,0.40338713024791917,0.8723684210526316,14.111340499999642
72,0.0003576842089279937,0.6030241860042919,0.95875,0.4456171543974625,0.8657894736842106,0.8663375568435002,0.975,0.925,0.4049121254368832,0.8710526315789474,14.079274900002929
73,0.0003510255845763356,0.6112851655483246,0.9525,0.4948252630861182,0.8407894736842105,0.841651447885365,0.975,0.8955882352941177,0.406950096707595,0.875,14.103514599999471
74,0.0003443411517103819,0.6217610451308164,0.9456818181818182,0.467174569242879,0.8513157894736842,0.8498784008958011,0.975,0.9088235294117647,0.4115556811031542,0.8736842105263158,14.073207900000853
75,0.0003376343247444856,0.6179646428064867,0.9635227272727273,0.4581844138471704,0.85,0.8498536442565084,1.0,0.9220588235294118,0.4127469916092722,0.8763157894736842,14.111165199996321
76,0.0003309085295319264,0.601954405524514,0.9655681818181818,0.45272377352965504,0.8565789473684211,0.8565458383575194,0.975,0.925,0.41322892778798154,0.8736842105263158,14.092671899998095
77,0.0003241672016149815,0.5953834976933219,0.9526136363636364,0.42053455459444145,0.8763157894736842,0.8755684159871067,1.0,0.9308823529411765,0.4139867682206003,0.8736842105263158,14.09465099999943
78,0.00031741378447004763,0.6500615334510803,0.9478409090909091,0.43904258232367666,0.8736842105263158,0.8729539131325998,1.0,0.925,0.415201609385641,0.875,14.100415500004601
79,0.00031065172774871004,0.6082515358924866,0.9661363636363637,0.42436017394065856,0.8710526315789474,0.870724405717594,0.975,0.9264705882352942,0.4144269441303454,0.8789473684210526,14.106071800000791
80,0.00030388448551565744,0.641982830546119,0.9448863636363637,0.4559125385786358,0.8631578947368421,0.8631396624046712,1.0,0.9102941176470588,0.41370472092377514,0.8789473684210526,14.091959299999871
81,0.0002971155144843426,0.6106843769550323,0.9528409090909091,0.4785529685647864,0.8460526315789474,0.8468522876459502,0.975,0.9176470588235294,0.418860104523207,0.8763157894736842,14.089387299994996
82,0.0002903482722512899,0.6097783142870122,0.9652272727272727,0.453461576135535,0.8526315789473684,0.8529101882426474,1.0,0.9161764705882353,0.42162387339692364,0.8763157894736842,14.091119299999264
83,0.0002835862155299524,0.6465940461375497,0.95125,0.43729023274622464,0.8671052631578947,0.8673785649264844,0.975,0.9264705882352942,0.42242375518146313,0.875,14.073775200005912
84,0.00027683279838501855,0.583813720182939,0.9702272727272727,0.4673898791012011,0.8605263157894737,0.8605575665593213,1.0,0.9176470588235294,0.4227556724297373,0.8723684210526316,14.102476100000786
85,0.00027009147046807365,0.624056212685325,0.9522727272727273,0.43695903640044365,0.8565789473684211,0.8573128068362035,0.975,0.9264705882352942,0.42294126749038696,0.8710526315789474,14.09462209999765
86,0.0002633656752555145,0.6086187635768544,0.9517045454545454,0.4631469720288327,0.8486842105263158,0.849017708505864,1.0,0.9220588235294118,0.4228469858044072,0.8723684210526316,14.172761800000444
87,0.00025665884828961807,0.5922077731652693,0.9569318181818182,0.4362368128801647,0.8644736842105263,0.8638725434274447,1.0,0.9279411764705883,0.4243782454415371,0.8723684210526316,14.100157100001525
88,0.00024997441542366436,0.5826458748904142,0.9654545454545455,0.47541070329515556,0.8578947368421053,0.857197422538683,1.0,0.9117647058823529,0.4261008821035686,0.8697368421052631,14.078986799999257
89,0.00024331579107200632,0.5671919091181321,0.9668181818181818,0.4665683137743097,0.8552631578947368,0.8566456573954554,0.975,0.913235294117647,0.42764290194762383,0.868421052631579,14.0695304999972
90,0.0002366863764659847,0.588002124374563,0.9743181818181819,0.4683959151569166,0.8539473684210527,0.8543370661219273,1.0,0.9205882352941176,0.4283937143652063,0.8657894736842106,14.081070599997474
91,0.0002300895579165759,0.6198118536038832,0.95375,0.4519507163449338,0.8657894736842106,0.8675563406491476,1.0,0.9220588235294118,0.4273762749998193,0.8671052631578947,14.075016800001322
92,0.0002235287050846607,0.5972281617468054,0.9648863636363636,0.42482500546856933,0.875,0.8744364166971815,1.0,0.9352941176470588,0.4252065564456739,0.8644736842105263,14.079803799999354
93,0.00021700716925979942,0.6017249178886414,0.9660227272727273,0.4626894495989147,0.8605263157894737,0.8614759364266366,0.975,0.9264705882352942,0.423933732509613,0.8671052631578947,14.06968870000128
94,0.00021052828164838913,0.6056524922631004,0.9634090909090909,0.4493657152903707,0.8618421052631579,0.8614575015952234,1.0,0.9161764705882353,0.42391750906643116,0.8697368421052631,14.066050599998562
95,0.00020409535167208103,0.6152763970331713,0.94875,0.4709910342567845,0.8513157894736842,0.8499198649067479,0.975,0.9294117647058824,0.4259339994505832,0.8723684210526316,14.10464750000392
96,0.00019771166527732506,0.6103618478775025,0.9490909090909091,0.4655381042706339,0.8592105263157894,0.8591683235600766,1.0,0.9220588235294118,0.42904863796736065,0.8723684210526316,14.11742289999529
97,0.00019138048325690465,0.6012100081010299,0.9644318181818182,0.4828164346908268,0.8486842105263158,0.8490615311171823,0.975,0.9073529411764706,0.4319832249691612,0.8736842105263158,14.103181999998924
98,0.00018510503958432174,0.5758787081458352,0.9702272727272727,0.49061576535827234,0.8526315789473684,0.8530661521717023,0.975,0.9073529411764706,0.4328228599146793,0.8710526315789474,14.089443400000164
99,0.0001788885397618797,0.5914954625476491,0.9584090909090909,0.46548269234205547,0.8539473684210527,0.8549929379100994,1.0,0.9176470588235294,0.433946629888133,0.8697368421052631,14.080417899996974
100,0.00017273415918330973,0.5975231243263591,0.9584090909090909,0.46938251790247465,0.8618421052631579,0.8620672501503301,1.0,0.9220588235294118,0.4330320656299591,0.868421052631579,14.090261800003645
101,0.00016664504151177735,0.6095586328072982,0.9746590909090909,0.4659559544764067,0.8631578947368421,0.8633219076299286,0.975,0.9205882352941176,0.434650381928996,0.8671052631578947,14.120968399998674
102,0.00016062429707409598,0.588122074062174,0.9610227272727273,0.4453031430118962,0.8631578947368421,0.8634573576195242,0.975,0.9308823529411765,0.43578041415465507,0.8671052631578947,14.08876859999873
103,0.00015467500127196946,0.5904160868037831,0.9689772727272727,0.5099066489621212,0.8473684210526315,0.849360987840236,0.975,0.9073529411764706,0.43730773894410385,0.868421052631579,14.074452699998801
104,0.0001488001930110739,0.5879444774714383,0.9640909090909091,0.49013262265606933,0.8473684210526315,0.8473543725308612,0.975,0.9073529411764706,0.44130955652186743,0.8671052631578947,14.097110499998962
105,0.00014300287314878202,0.6108177651058544,0.9628409090909091,0.5154015801454845,0.8355263157894737,0.8364372850845342,0.975,0.8955882352941177,0.4452091424088729,0.868421052631579,14.057484799996018
106,0.00013728600296132235,0.5780369487675754,0.9752272727272727,0.4546394749691612,0.8578947368421053,0.8581605385999079,0.975,0.9176470588235294,0.4458848645812587,0.8644736842105263,14.101736799995706
107,0.00013165250263115694,0.5869930309599096,0.9613636363636363,0.49145949577030384,0.8578947368421053,0.856762484047348,1.0,0.9147058823529411,0.44602669132383244,0.8657894736842106,14.093198299997312
108,0.0001261052497553492,0.5662505807659842,0.9745454545454545,0.4812820437707399,0.8552631578947368,0.8542175209098847,0.975,0.913235294117647,0.44577781244328146,0.868421052631579,14.156356700004835
109,0.0001206470778756849,0.5872606936368076,0.9732954545454545,0.4806843001591532,0.8473684210526315,0.8473637706604569,1.0,0.9058823529411765,0.4477355144525829,0.8657894736842106,14.10027049999917
110,0.0001152807750312964,0.5641441660577601,0.9607954545454546,0.46705185770988467,0.85,0.8496982836486346,0.975,0.9102941176470588,0.4494724483866441,0.8631578947368421,14.095776800000749
111,0.00011000908233452982,0.5690115155956962,0.9711363636363637,0.4570769457440627,0.8631578947368421,0.8630588377307316,0.975,0.9205882352941176,0.44915233505399604,0.8657894736842106,14.09251690000383
112,0.00010483469257078224,0.6225542358918623,0.9679545454545454,0.4657024179634295,0.8565789473684211,0.8570349528129683,1.0,0.9117647058823529,0.45133795455882425,0.8618421052631579,14.084108600000036
113,9.976024882302456e-05,0.6374667928435586,0.95625,0.47006281865270516,0.8552631578947368,0.856153830735549,0.975,0.9073529411764706,0.4533167798268168,0.8605263157894737,14.103863600001205
114,9.478834312171236e-05,0.587483885938471,0.9686363636363636,0.45632862354579723,0.8618421052631579,0.861810735285941,0.975,0.9161764705882353,0.45073145753458926,0.8605263157894737,14.076714800001355
115,8.992151512077429e-05,0.5853415166247975,0.96875,0.465543647502598,0.8618421052631579,0.862289061392125,1.0,0.9161764705882353,0.4505150239718588,0.8605263157894737,14.081525900000997
116,8.516225080035476e-05,0.55078552051024,0.9825,0.4507764323761589,0.8697368421052631,0.8697410514724142,1.0,0.9235294117647059,0.4499370364766372,0.8592105263157894,14.105027999998129
117,8.051298119697266e-05,0.584514265277169,0.9688636363636364,0.46006871242272224,0.868421052631579,0.8693040067789847,1.0,0.9205882352941176,0.45043720414764005,0.8618421052631579,14.099221500000567
118,7.597608116174637e-05,0.6115224170684814,0.9668181818181818,0.4709055859791605,0.8565789473684211,0.856261098420638,1.0,0.9191176470588235,0.4504079718338816,0.8631578947368421,14.105562299999292
119,7.155386814731662e-05,0.5836084230379625,0.9731818181818181,0.46689276538397134,0.8592105263157894,0.8595062888082232,1.0,0.9161764705882353,0.4509652394997446,0.8618421052631579,14.11057720000099
120,6.724860102409081e-05,0.5565330024199052,0.9720454545454545,0.4551982675728045,0.8565789473684211,0.8562832540465225,0.975,0.9205882352941176,0.45296847632056786,0.8605263157894737,14.070238100001006
121,6.306247892640888e-05,0.5878048812259328,0.9676136363636364,0.4924647284181494,0.8407894736842105,0.8424826680916103,0.975,0.8970588235294118,0.45330537588972797,0.8605263157894737,14.09765399999742
122,5.899764012922409e-05,0.5634214011105624,0.9715909090909091,0.4589010941354852,0.8592105263157894,0.8596933462126055,1.0,0.9088235294117647,0.45364933955041986,0.8644736842105263,14.085134900000412
123,5.5056160955870474e-05,0.5957293059609153,0.954659090909091,0.48228936493396757,0.8552631578947368,0.8564047181164494,0.975,0.9,0.4543262673051734,0.8631578947368421,14.080983799998648
124,5.1240054717474066e-05,0.5849378916350279,0.9743181818181819,0.49442339382673567,0.8526315789473684,0.8536163598753944,0.975,0.9029411764705882,0.45699727817585595,0.8631578947368421,14.071620499998971
125,4.755127068455278e-05,0.5792375355417079,0.9722727272727273,0.47277671443788627,0.8565789473684211,0.857617092456333,0.975,0.9102941176470588,0.4589797167401565,0.8605263157894737,14.101153800002066
126,4.399169309132677e-05,0.5737754405628551,0.975909090909091,0.47693593909865933,0.8592105263157894,0.8594879610726451,0.975,0.9088235294117647,0.46153644856653714,0.8592105263157894,14.071581600001082
127,4.0563140173249585e-05,0.5851883773370222,0.9776136363636364,0.46593154010019805,0.8618421052631579,0.8625014837102911,0.975,0.9147058823529411,0.46160599526606105,0.8592105263157894,14.081836400000611
128,3.726736323825278e-05,0.5607765115391125,0.9715909090909091,0.4923816878544657,0.8460526315789474,0.8477444271121474,0.975,0.8970588235294118,0.46240105911305074,0.8578947368421053,14.10145800000464
129,3.41060457721751e-05,0.5961453186381946,0.9572727272727273,0.46571856141090395,0.8644736842105263,0.8649055582178086,0.975,0.9088235294117647,0.4638614055357481,0.8552631578947368,14.109499700003653
130,3.1080802578837415e-05,0.5898345446586609,0.9647727272727272,0.47787435525342037,0.8592105263157894,0.8599858945103115,0.975,0.9058823529411765,0.4653011930616278,0.8578947368421053,14.071182900006534
131,2.8193178955198895e-05,0.5841471522504633,0.9720454545454545,0.4775418730158555,0.8657894736842106,0.8663975357576927,0.975,0.9088235294117647,0.46617704724010667,0.8592105263157894,14.089213899998867
132,2.544464990201774e-05,0.6003564922376112,0.9688636363636364,0.4847319759820637,0.8605263157894737,0.8615734520679895,0.975,0.9073529411764706,0.46781005828004135,0.8592105263157894,14.08115170000383
133,2.283661937042025e-05,0.5724054462259466,0.9715909090909091,0.5031138369911595,0.8486842105263158,0.8493932130971802,0.975,0.8970588235294118,0.4695602413855101,0.8592105263157894,14.129574999999022
134,2.0370419544760518e-05,0.6071478217298334,0.9727272727272728,0.489802390650699,0.8592105263157894,0.859843635694993,0.975,0.9014705882352941,0.4715049342105263,0.8592105263157894,14.113331000000471
135,1.804731016213988e-05,0.5809662888266823,0.9768181818181818,0.489566360335601,0.8539473684210527,0.8549996465171944,0.975,0.9014705882352941,0.4727017057569403,0.8592105263157894,14.08673959999578
136,1.5868477868931964e-05,0.5589036430012096,0.9720454545454545,0.46949125496964705,0.8605263157894737,0.8607775792945285,0.975,0.9117647058823529,0.4738835378697044,0.8578947368421053,14.074899700004607
137,1.3835035614642541e-05,0.5406782826510342,0.9818181818181818,0.48373654108298453,0.8592105263157894,0.8592471745248386,0.975,0.9058823529411765,0.474390772455617,0.8592105263157894,14.066229700001713
138,1.1948022083414199e-05,0.5396212889931419,0.9747727272727272,0.4586176009554612,0.8671052631578947,0.8667904670498711,1.0,0.9176470588235294,0.47449854737833924,0.8605263157894737,14.079650600004243
139,1.0208401163465185e-05,0.542157048962333,0.9838636363636364,0.4774599567839974,0.8605263157894737,0.8608321630707856,0.975,0.9073529411764706,0.47414341945397226,0.8605263157894737,14.081836400000611
140,8.617061454734755e-06,0.5980409082499417,0.9547727272727272,0.4717677863020646,0.8631578947368421,0.8638474431812616,0.975,0.9117647058823529,0.47353957326788654,0.8605263157894737,14.07535729999654
141,7.1748158149852224e-06,0.5886083976788954,0.9669318181818182,0.4771272348730188,0.8644736842105263,0.8646864494110946,0.975,0.9058823529411765,0.4731715149001071,0.8605263157894737,14.12061480000557
142,5.882400944593751e-06,0.5542234288562428,0.9732954545454545,0.47463290660004864,0.8592105263157894,0.8596178870054967,0.975,0.9,0.4733710034897453,0.8592105263157894,14.095666000001074
143,4.740477010244959e-06,0.5733331136270002,0.9680681818181818,0.47521828193413584,0.8565789473684211,0.8570417005431473,0.975,0.9044117647058824,0.4733442601404692,0.8592105263157894,14.068541799999366
144,3.7496273077172435e-06,0.5522337836569006,0.9818181818181818,0.4892077791063409,0.8552631578947368,0.8562825782635348,0.975,0.8970588235294118,0.47341910977112617,0.8592105263157894,14.088304400000197
145,2.9103579639347222e-06,0.5944401069120927,0.9645454545454546,0.4657061937608217,0.8644736842105263,0.8646485594440358,0.975,0.913235294117647,0.47361883834788676,0.8592105263157894,14.078760199998214
146,2.223097678437247e-06,0.5599073019894687,0.9751136363636363,0.47289565205574036,0.8578947368421053,0.8585856459946349,0.975,0.9073529411764706,0.47366003739206414,0.8565789473684211,14.07887739999569
147,1.6881975044002091e-06,0.5517335928570141,0.9769318181818182,0.47663477941563254,0.8578947368421053,0.8582490799845898,0.975,0.9117647058823529,0.47382370892323944,0.8565789473684211,14.087228700002015
148,1.3059306693162125e-06,0.5478256949511441,0.9701136363636363,0.47665373149671053,0.8565789473684211,0.8577957153545033,0.975,0.9044117647058824,0.47406166572319836,0.8552631578947368,14.112658500001999
149,1.0764924354303636e-06,0.5758740655942397,0.9706818181818182,0.4715529583002392,0.8592105263157894,0.8596560358034873,0.975,0.9088235294117647,0.47419931574871665,0.8552631578947368,14.090875900001265
150,1e-06,0.5752160438624295,0.9677272727272728,0.4773653529192272,0.8592105263157894,0.8597398773098247,0.975,0.9029411764705882,0.47440016802988555,0.8552631578947368,14.069107399998757
