epoch,lr,train_loss,train_accuracy,val_loss,val_accuracy,val_macro_f1,val_trial_accuracy,val_k3,ema_loss,ema_accuracy,seconds
1,5.9999999999999995e-05,1.4476993495767767,0.4177272727272727,1.1528247218382985,0.5276315789473685,0.4844180219705577,0.65,0.5602941176470588,1.6092130974719399,0.2,6.176384300000791
2,0.00011999999999999999,1.24527700770985,0.5546590909090909,0.9459870200408133,0.6513157894736842,0.6291642984978258,0.775,0.6941176470588235,1.6105353116989136,0.2,6.073912300002121
3,0.00018,1.1220319624380632,0.6602272727272728,0.7326059818267823,0.7381578947368421,0.7359889497555996,0.925,0.7911764705882353,1.6127891138980264,0.2,6.098405900003854
4,0.00023999999999999998,1.0035724917325106,0.73375,0.5805617272853851,0.8078947368421052,0.8065508138238068,1.0,0.8661764705882353,1.6178505307749698,0.2,6.063371800002642
5,0.0003,0.9443994053927335,0.77375,0.4885934446987353,0.8302631578947368,0.8298583451295685,1.0,0.8985294117647059,1.629336710980064,0.2,6.082761300000129
6,0.00035999999999999997,0.8829438335245305,0.8,0.448837642606936,0.85,0.8493425397319585,1.0,0.8970588235294118,1.6533845575232256,0.2,6.055396700001438
7,0.00042,0.8720095354860479,0.8154545454545454,0.418895581521486,0.8644736842105263,0.8632599844654572,1.0,0.913235294117647,1.7150230006167764,0.2,6.090853399997286
8,0.0004799999999999999,0.8721219112656333,0.8107954545454545,0.4241368544729132,0.8763157894736842,0.8759546493403555,0.975,0.9308823529411765,1.8254722212490282,0.2,6.085412100001122
9,0.00054,0.8433647571910511,0.8313636363636364,0.4011921525001526,0.8763157894736842,0.8760788820474892,0.975,0.9264705882352942,1.9971017919088665,0.2,6.051248499999929
10,0.0005999999999999998,0.8478057085384022,0.8338636363636364,0.4275134224640696,0.868421052631579,0.8661450416864032,1.0,0.9147058823529411,2.153874126547261,0.2,6.060640900002909
11,0.0006,0.831721285906705,0.8411363636363637,0.4087024073851736,0.8697368421052631,0.8684555419303781,1.0,0.9220588235294118,2.2641020128601475,0.2,6.064737499997136
12,0.0005999235075645696,0.8102642982656305,0.8561363636363636,0.43170165921512405,0.868421052631579,0.8666639525176019,1.0,0.9161764705882353,2.3959003646122783,0.2,6.089850100004696
13,0.0005996940693306837,0.7667195471850309,0.8639772727272728,0.428071875948655,0.8578947368421053,0.8568631632300413,1.0,0.9176470588235294,2.5579585020479403,0.2,6.078388599999016
14,0.0005993118024955998,0.7950867570530284,0.8606818181818182,0.4770637223595067,0.8394736842105263,0.8389348821801346,0.975,0.888235294117647,2.7064388880604193,0.2,6.085016099998029
15,0.0005987769023215627,0.7576164973865855,0.8751136363636364,0.4217908558092619,0.8657894736842106,0.8666916285023885,1.0,0.9205882352941176,2.806774902814313,0.2,6.078759599993646
16,0.0005980896420360653,0.7693467559597709,0.867840909090909,0.41228171837957284,0.8697368421052631,0.8691798323005298,1.0,0.9323529411764706,2.905533398923121,0.2,6.07195469999715
17,0.0005972503726922827,0.7572302007675171,0.875,0.39252711032566273,0.868421052631579,0.8653587018612162,1.0,0.9264705882352942,2.9623393010936288,0.2,6.074163999997836
18,0.0005962595229897549,0.7355484548482027,0.8855681818181819,0.41439536151133083,0.8776315789473684,0.8772566393167571,1.0,0.9220588235294118,3.047024375749262,0.2,6.0462476999964565
19,0.0005951175990554061,0.759481605833227,0.8675,0.41719814005650974,0.868421052631579,0.8681494932972512,0.975,0.9264705882352942,3.0951325266769056,0.2,6.082710700000462
20,0.0005938251841850148,0.7722766449234703,0.8704545454545455,0.35967429280281066,0.8868421052631579,0.8869236597463124,1.0,0.9426470588235294,3.145096788829879,0.2,6.092936900000495
21,0.0005923829385452652,0.7530637175386602,0.8895454545454545,0.4118104244533338,0.881578947368421,0.8799677226978453,1.0,0.9323529411764706,3.2249966673945125,0.2,6.042955099997926
22,0.0005907915988365347,0.7218800915371288,0.9034090909090909,0.4182660140489277,0.8710526315789474,0.8684311712787135,0.975,0.9264705882352942,3.334440813644936,0.2,6.101192900001479
23,0.0005890519779165858,0.7501019844141873,0.8806818181818182,0.4120615513701188,0.8776315789473684,0.8765185258988735,0.975,0.9235294117647059,3.4752253885331905,0.2,6.035230599998613
24,0.0005871649643853574,0.7092501334710555,0.9081818181818182,0.44200379189692046,0.8657894736842106,0.8683160985816141,0.975,0.8985294117647059,3.5517599810110894,0.2,6.079914399997506
25,0.000585131522131068,0.7355032734437422,0.9028409090909091,0.5226896166801452,0.8078947368421052,0.8042356662517394,0.95,0.8544117647058823,3.5245707861687006,0.2,6.0803466999932425
26,0.0005829526898378601,0.7319741940498352,0.9009090909090909,0.4034986389310736,0.8802631578947369,0.8785692668454255,1.0,0.9323529411764706,3.406371709155409,0.2013157894736842,6.081488999996509
27,0.0005806295804552395,0.7183948088775981,0.9120454545454545,0.43253995180130006,0.8671052631578947,0.8640693841049183,1.0,0.9088235294117647,3.237899700199303,0.2131578947368421,6.08371939999779
28,0.0005781633806295796,0.7121154288812117,0.9130681818181818,0.4027563195479544,0.8881578947368421,0.8879003961378718,1.0,0.9352941176470588,2.9751830650787605,0.21973684210526315,6.068479999994452
29,0.0005755553500979822,0.6607166277278553,0.9169318181818182,0.4233453869819641,0.8671052631578947,0.8655707765375702,1.0,0.9235294117647059,2.668660856704963,0.24736842105263157,6.0668459000007715
30,0.0005728068210448012,0.6966443634033204,0.920340909090909,0.40447588500223663,0.8789473684210526,0.8786220729984537,1.0,0.9382352941176471,2.33507324998316,0.29078947368421054,6.073256099996797
31,0.0005699191974211625,0.7434807350418784,0.8930681818181818,0.4500611157793748,0.8631578947368421,0.8611906052211242,0.975,0.9235294117647059,1.9631847580796793,0.37763157894736843,6.09337719999894
32,0.0005668939542278249,0.7217372263561596,0.9006818181818181,0.4645805358886719,0.85,0.8495705321896304,0.975,0.9014705882352941,1.645883178475656,0.44605263157894737,6.053527299998677
33,0.0005637326367617472,0.7029677104949951,0.9069318181818182,0.38121761616907623,0.8907894736842106,0.8907883498765381,1.0,0.9411764705882353,1.4117982560866758,0.5105263157894737,6.1246885000000475
34,0.0005604368598267504,0.6771548939834942,0.92375,0.3958820142244038,0.8842105263157894,0.8828036784923027,0.975,0.9352941176470588,1.1887024732012497,0.5723684210526315,6.195748599995568
35,0.0005570083069086733,0.7128308135812933,0.9160227272727273,0.43293836461870294,0.868421052631579,0.868023083745534,1.0,0.9367647058823529,0.9869236190068095,0.6381578947368421,6.0745014999993145
36,0.0005534487293154471,0.6737072945724835,0.9352272727272727,0.3879279491148497,0.8855263157894737,0.8850764167884014,1.0,0.9308823529411765,0.8508323667865051,0.6855263157894737,6.044590999998036
37,0.0005497599452825259,0.688086279522289,0.9231818181818182,0.4212507545948029,0.868421052631579,0.8679949430942926,1.0,0.9352941176470588,0.728327339887619,0.7236842105263158,6.062337199997273
38,0.0005459438390441295,0.688046785809777,0.92125,0.43758360147476194,0.8578947368421053,0.8570877138734282,1.0,0.9176470588235294,0.6271161131168667,0.7618421052631579,6.065669399999024
39,0.0005420023598707758,0.6793394387852062,0.9264772727272728,0.4170636647625973,0.875,0.8728331565535818,1.0,0.925,0.5597573529732854,0.7934210526315789,6.0797486000010394
40,0.0005379375210735911,0.6514175343513489,0.9343181818181818,0.4510523745888158,0.8710526315789474,0.8678104225557879,0.975,0.9176470588235294,0.5040928699468311,0.8289473684210527,6.092130000004545
41,0.0005337513989759092,0.6659444171732122,0.913409090909091,0.406364601536801,0.8776315789473684,0.8762330842873247,1.0,0.9294117647058824,0.4726996766893487,0.8447368421052631,6.0450459999992745
42,0.0005294461318526833,0.7008812030878934,0.9165909090909091,0.45284993930866846,0.8671052631578947,0.8682509094436549,1.0,0.9308823529411765,0.44685371706360266,0.868421052631579,6.119880899997952
43,0.0005250239188382536,0.6953974348848516,0.918409090909091,0.4520834276550694,0.868421052631579,0.8666723979957549,1.0,0.925,0.43033619930869654,0.875,6.083430600003339
44,0.0005204870188030272,0.7409370445121418,0.9117045454545455,0.45894871793295205,0.8618421052631579,0.8607602679870183,1.0,0.9264705882352942,0.42314894732676056,0.875,6.119682399999874
45,0.0005158377491996452,0.6820601073178378,0.9209090909090909,0.4708148761799461,0.85,0.8453512905097622,0.975,0.9102941176470588,0.4178745868958925,0.8723684210526316,6.0856238000051235
46,0.0005110784848792257,0.6669557573578574,0.9403409090909091,0.49246079262934234,0.8421052631578947,0.8403003829611144,0.975,0.9102941176470588,0.41553272510829725,0.8763157894736842,6.0842814999996335
47,0.0005062116568782877,0.6176920203729109,0.9563636363636364,0.4313191859345687,0.8618421052631579,0.8594469191137163,1.0,0.9279411764705883,0.4119043855290664,0.881578947368421,6.0924336000025505
48,0.0005012397511769754,0.6754157261414961,0.9290909090909091,0.47580739071494654,0.8565789473684211,0.8546107750109299,1.0,0.9147058823529411,0.4080704544719897,0.881578947368421,6.078242600000522
49,0.0004961653074292177,0.6934307447346774,0.9290909090909091,0.49242941266612,0.85,0.8485116862794071,0.975,0.9117647058823529,0.4077905363158176,0.8842105263157894,6.167803299998923
50,0.0004909909176654702,0.6638730001449585,0.9304545454545454,0.4425444549635837,0.8631578947368421,0.8623161067615414,1.0,0.9220588235294118,0.4063080436304996,0.8868421052631579,6.388263499997265
51,0.00048571922496870357,0.708425089229237,0.9294318181818182,0.44974132337068257,0.8763157894736842,0.8750583118978021,1.0,0.9382352941176471,0.4055274759468279,0.881578947368421,6.1386639999982435
52,0.00048035292212431514,0.6292097533832897,0.945,0.4269516775482579,0.8789473684210526,0.8786605600060418,1.0,0.9411764705882353,0.4034569592852342,0.8828947368421053,6.139433700001973
53,0.0004748947502446508,0.650093629360199,0.9415909090909091,0.40112376903232777,0.881578947368421,0.8813514621261327,1.0,0.9220588235294118,0.40219913187779877,0.8828947368421053,6.111577800002124
54,0.00046934749736884306,0.6545287682793357,0.9382954545454546,0.43186872319171304,0.8710526315789474,0.8694638001695164,1.0,0.9279411764705883,0.39918435686513,0.881578947368421,6.096573699993314
55,0.0004637139970386777,0.6255244621363553,0.9438636363636363,0.4324100497521852,0.8789473684210526,0.8781432094033212,1.0,0.9323529411764706,0.396818482875824,0.8802631578947369,6.099717600001895
56,0.000457997126851218,0.6744927966594696,0.9254545454545454,0.47419007922473705,0.8473684210526315,0.8461107181565717,1.0,0.9176470588235294,0.39611507214997943,0.8842105263157894,6.1094994000013685
57,0.00045219980698892607,0.6579530039700595,0.9463636363636364,0.3964886724948883,0.8907894736842106,0.8896227551225107,1.0,0.9426470588235294,0.39436304192794,0.8842105263157894,6.083287699999346
58,0.0004463249987280305,0.6586745827848262,0.9329545454545455,0.436751515614359,0.8710526315789474,0.8710179460966037,1.0,0.9191176470588235,0.3938749611377716,0.8842105263157894,6.086656999999832
59,0.000440375702925904,0.6589729003472762,0.9364772727272728,0.43487974468030427,0.8618421052631579,0.8606940278495934,1.0,0.9205882352941176,0.39224463920844227,0.8868421052631579,6.098086700003478
60,0.0004343549584882226,0.6477334118973125,0.9470454545454545,0.4576610144815947,0.8421052631578947,0.8385467504224888,1.0,0.9088235294117647,0.39253973647167806,0.8855263157894737,6.115487800001574
61,0.00042826584081669025,0.6666393028606068,0.9440909090909091,0.4183729080777419,0.875,0.8739505541761343,1.0,0.9191176470588235,0.392030415095781,0.8828947368421053,6.134719599998789
62,0.00042211146023812037,0.6411937408013777,0.9352272727272727,0.3935421984446676,0.8855263157894737,0.8841346286037016,1.0,0.9352941176470588,0.3908693015575409,0.8828947368421053,6.134383999997226
63,0.0004158949604156783,0.6613416223092513,0.9375,0.4476830752272355,0.8578947368421053,0.8547983423722261,1.0,0.9161764705882353,0.388380231355366,0.8881578947368421,6.091487400000915
64,0.0004096195167430953,0.6235155117511749,0.9442045454545455,0.4131103528173346,0.8723684210526316,0.8712551407406275,1.0,0.9411764705882353,0.388808883805024,0.8921052631578947,6.105860499999835
65,0.0004032883347226749,0.6481801918419925,0.9359090909090909,0.4477315008640289,0.8697368421052631,0.8687314835843924,1.0,0.9205882352941176,0.3880715213323894,0.8921052631578947,6.141711399999622
66,0.0003969046483279189,0.6643220937252045,0.9359090909090909,0.4627057520966781,0.8605263157894737,0.8592902676229383,1.0,0.9147058823529411,0.38754922935837194,0.8934210526315789,6.096173400001135
67,0.0003904717183516109,0.6377446510575034,0.9492045454545455,0.4852679603978207,0.8473684210526315,0.8469629724205034,1.0,0.9058823529411765,0.38801144988913283,0.8907894736842106,6.082834599998023
68,0.0003839928307402005,0.6245697589354081,0.9510227272727273,0.4165471923978705,0.8855263157894737,0.8842454685695431,0.975,0.9264705882352942,0.3896667486742923,0.8921052631578947,6.054687800002284
69,0.00037747129491533916,0.6415237238190391,0.9428409090909091,0.45156595518714504,0.8565789473684211,0.8544444549742602,1.0,0.9176470588235294,0.39153566925149214,0.8947368421052632,6.121869599999627
70,0.0003709104420834241,0.6511754403331063,0.9439772727272727,0.4437987487567098,0.8763157894736842,0.8758814480671024,1.0,0.9176470588235294,0.3918964982032776,0.8960526315789473,6.139150599999994
71,0.00036431362353401533,0.6302729027921503,0.9473863636363636,0.438774951194462,0.8631578947368421,0.8614030463886534,1.0,0.9088235294117647,0.3943104000468003,0.8934210526315789,6.0923256000023684
72,0.0003576842089279937,0.6612414056604559,0.9343181818181818,0.3922562439190714,0.8776315789473684,0.8775201574050359,1.0,0.9308823529411765,0.3957217574119568,0.8921052631578947,6.116165400002501
73,0.0003510255845763356,0.6618922518600117,0.9389772727272727,0.40902999168948123,0.8802631578947369,0.8792272487091732,1.0,0.9323529411764706,0.39473575886927154,0.8921052631578947,6.0864892000026884
74,0.0003443411517103819,0.6104902708530426,0.9504545454545454,0.4039615439741235,0.881578947368421,0.8803132882368834,1.0,0.9323529411764706,0.3909819744135204,0.8907894736842106,6.082097599995905
75,0.0003376343247444856,0.6455503507093949,0.9454545454545454,0.4642164923642811,0.8657894736842106,0.8647631562770037,0.975,0.9264705882352942,0.38904085598493876,0.8921052631578947,6.094043400000373
76,0.0003309085295319264,0.657287851897153,0.9382954545454546,0.4379086550913359,0.875,0.8743255673119144,1.0,0.9338235294117647,0.3883602346244611,0.8881578947368421,6.064233000004606
77,0.0003241672016149815,0.6403314813700589,0.9498863636363636,0.4213156439756092,0.8894736842105263,0.8884708991167191,1.0,0.9411764705882353,0.38792989661819055,0.8855263157894737,6.107183799998893
78,0.00031741378447004763,0.6218226631121202,0.95125,0.3981640869065335,0.8828947368421053,0.8817994600004566,1.0,0.9397058823529412,0.3874787173773113,0.8881578947368421,6.061746999999741
79,0.00031065172774871004,0.6533889206972989,0.9502272727272727,0.4522803463433918,0.8631578947368421,0.860547677780571,1.0,0.9205882352941176,0.38704002844659907,0.8894736842105263,6.1225989000013215
80,0.00030388448551565744,0.6365757822990418,0.9461363636363637,0.39877098547784906,0.8802631578947369,0.8793027617148134,1.0,0.9426470588235294,0.387514496163318,0.8894736842105263,6.097414800002298
81,0.0002971155144843426,0.5840131510387767,0.9552272727272727,0.4085669263413078,0.8868421052631579,0.8857858209090292,1.0,0.9352941176470588,0.38686362818667763,0.8921052631578947,6.076385499996832
82,0.0002903482722512899,0.6310736053640192,0.9411363636363637,0.4554733288915534,0.8605263157894737,0.8586382667685936,1.0,0.9205882352941176,0.3874425797086013,0.8868421052631579,6.10321020000265
83,0.0002835862155299524,0.5961320335214788,0.9589772727272727,0.3798736180129804,0.8934210526315789,0.8927717769263955,1.0,0.9455882352941176,0.38568079032396013,0.8921052631578947,6.093326599999273
84,0.00027683279838501855,0.6076322997700084,0.9557954545454546,0.43055588697132313,0.8723684210526316,0.8711279784422856,1.0,0.9279411764705883,0.38553868249842993,0.8907894736842106,6.207642900000792
85,0.00027009147046807365,0.6353988261656328,0.9480681818181819,0.43036535162674755,0.8697368421052631,0.8689452742772804,1.0,0.9073529411764706,0.3859084675186559,0.8894736842105263,6.076199399998586
86,0.0002633656752555145,0.5959265623309395,0.9617045454545454,0.4044323569849918,0.8855263157894737,0.8850021738285896,1.0,0.9382352941176471,0.3850396802550868,0.8894736842105263,6.102099200004886
87,0.00025665884828961807,0.6053305101394654,0.9605681818181818,0.4101278998349842,0.8855263157894737,0.8846626933882178,1.0,0.9308823529411765,0.3861363470554352,0.8894736842105263,6.117632000001322
88,0.00024997441542366436,0.637258027900349,0.9505681818181818,0.446621825193104,0.8723684210526316,0.8710735968157112,1.0,0.925,0.38782641668068735,0.8907894736842106,6.091142099998251
89,0.00024331579107200632,0.6041911877285351,0.9590909090909091,0.40536089445415296,0.875,0.8746476010468852,1.0,0.9235294117647059,0.3890626998324143,0.8934210526315789,6.117109799997706
90,0.0002366863764659847,0.571392673145641,0.9711363636363637,0.415973624116496,0.8736842105263158,0.8731778423458856,1.0,0.9397058823529412,0.39061741138759415,0.8921052631578947,6.091719999996712
91,0.0002300895579165759,0.5913139740987258,0.9621590909090909,0.40621177271792763,0.881578947368421,0.8809722292373573,1.0,0.9382352941176471,0.3913539274742729,0.8894736842105263,6.076936900004512
92,0.0002235287050846607,0.616333160942251,0.9540909090909091,0.44346718850888706,0.868421052631579,0.8674602725264758,1.0,0.9205882352941176,0.39389965659693665,0.8907894736842106,6.096011300003738
93,0.00021700716925979942,0.642170752286911,0.9419318181818181,0.42252133018092103,0.8776315789473684,0.8767480125148606,1.0,0.9294117647058824,0.3976432006610067,0.8894736842105263,6.04955820000032
94,0.00021052828164838913,0.6139272817698392,0.9493181818181818,0.44987776844125044,0.8605263157894737,0.8592703127684322,1.0,0.9264705882352942,0.3992300739413814,0.8868421052631579,6.0752241000009235
95,0.00020409535167208103,0.5849899606271224,0.965,0.4000403162680174,0.881578947368421,0.8805309435796508,1.0,0.9382352941176471,0.4001407431928735,0.8921052631578947,6.116835400003765
96,0.00019771166527732506,0.6015535924651406,0.9581818181818181,0.43787653069747123,0.8578947368421053,0.8561996950123104,1.0,0.9220588235294118,0.3997823614823191,0.8921052631578947,6.085736599998199
97,0.00019138048325690465,0.5864426318081942,0.9701136363636363,0.4224426275805423,0.8736842105263158,0.8727651661484768,0.975,0.9294117647058824,0.400555218834626,0.8855263157894737,6.0960246000031475
98,0.00018510503958432174,0.5777517002279108,0.9704545454545455,0.39172274909521404,0.8802631578947369,0.8790571784664358,1.0,0.9426470588235294,0.40035577039969594,0.8894736842105263,6.108955700001388
99,0.0001788885397618797,0.6211854054711082,0.94625,0.41459129797784905,0.8828947368421053,0.8818426076509572,1.0,0.9441176470588235,0.3986675456950539,0.8907894736842106,6.091065799999342
100,0.00017273415918330973,0.6209519392793829,0.9588636363636364,0.40222019396330183,0.875,0.8740834766087391,1.0,0.9323529411764706,0.3973600277775212,0.8921052631578947,6.091455200003111
101,0.00016664504151177735,0.6345198514244773,0.9489772727272727,0.43827530678949855,0.8644736842105263,0.8623171397570273,1.0,0.925,0.39678264385775514,0.8894736842105263,6.083681399999477
102,0.00016062429707409598,0.6020918633721092,0.9614772727272727,0.4240696160416854,0.881578947368421,0.880484593618269,1.0,0.9367647058823529,0.3968552441973435,0.8881578947368421,6.053562200002489
103,0.00015467500127196946,0.6661351160569624,0.9405681818181818,0.44693884504468817,0.8697368421052631,0.8683351499139128,1.0,0.9279411764705883,0.39935122038188736,0.8842105263157894,6.067057000000204
104,0.0001488001930110739,0.6274078200080178,0.9476136363636364,0.43691117041989375,0.8657894736842106,0.8648633093947588,1.0,0.9220588235294118,0.4008819187942304,0.8828947368421053,6.105811800000083
105,0.00014300287314878202,0.5981140424988487,0.9603409090909091,0.43143061587685033,0.8723684210526316,0.8709628163098369,1.0,0.9308823529411765,0.4014920689557728,0.8842105263157894,6.092321399999491
106,0.00013728600296132235,0.636368340362202,0.9552272727272727,0.4307265432257401,0.875,0.8736656000151031,1.0,0.9367647058823529,0.40408594294598227,0.8842105263157894,6.103830899999593
107,0.00013165250263115694,0.6090970300544392,0.9627272727272728,0.4189845439634825,0.875,0.8741312504008721,1.0,0.9235294117647059,0.404631002953178,0.8855263157894737,6.094436400002451
108,0.0001261052497553492,0.6293835843693126,0.9518181818181818,0.4213304212218837,0.8776315789473684,0.8765682086132968,1.0,0.9382352941176471,0.4046329306928735,0.8842105263157894,6.077610799999093
109,0.0001206470778756849,0.6510335245999423,0.9545454545454546,0.406037983455156,0.8842105263157894,0.8831407815017446,1.0,0.9411764705882353,0.40705136782244633,0.8855263157894737,6.084195900002669
110,0.0001152807750312964,0.5764375546845523,0.97,0.3977388090208957,0.8855263157894737,0.8851851565011609,1.0,0.9382352941176471,0.40694989562034606,0.8842105263157894,6.114111700000649
111,0.00011000908233452982,0.5957890651442788,0.9631818181818181,0.43648649422745955,0.8671052631578947,0.8662319680780737,1.0,0.9220588235294118,0.4069546341896057,0.8828947368421053,6.0958927999963635
112,0.00010483469257078224,0.5853661912137812,0.9654545454545455,0.4203895970394737,0.8736842105263158,0.8730125334080576,1.0,0.9382352941176471,0.4087779801142843,0.8842105263157894,6.089530100005504
113,9.976024882302456e-05,0.6230651083859531,0.9514772727272728,0.41771039554947303,0.8776315789473684,0.8766059083419172,1.0,0.9352941176470588,0.40972494733961007,0.881578947368421,6.088990099997318
114,9.478834312171236e-05,0.609129175381227,0.9561363636363637,0.4081861790857817,0.8855263157894737,0.8850576349339605,1.0,0.9411764705882353,0.4098178267478943,0.8802631578947369,6.124682800000301
115,8.992151512077429e-05,0.6194699323177337,0.9497727272727273,0.4149415668688322,0.8855263157894737,0.8846570984146638,1.0,0.9352941176470588,0.41037188172340394,0.881578947368421,6.1107368000011775
116,8.516225080035476e-05,0.6353160173242742,0.951590909090909,0.44090411506201094,0.8644736842105263,0.8633153299398277,1.0,0.925,0.41141887432650515,0.8842105263157894,6.137885699994513
117,8.051298119697266e-05,0.6098679089546204,0.9642045454545455,0.42519591576174687,0.8802631578947369,0.8792620374516927,1.0,0.9382352941176471,0.41127817222946567,0.8842105263157894,6.090768599999137
118,7.597608116174637e-05,0.6141549589417198,0.9506818181818182,0.42627619755895513,0.8789473684210526,0.8779965627112395,1.0,0.9279411764705883,0.4111614832752629,0.8868421052631579,6.093521700000565
119,7.155386814731662e-05,0.589816390059211,0.9695454545454546,0.41850168391277914,0.8776315789473684,0.8766974686645324,1.0,0.9367647058823529,0.4101089888497403,0.8868421052631579,6.088922499999171
120,6.724860102409081e-05,0.6244223911112005,0.9502272727272727,0.4354900953016783,0.8736842105263158,0.8732796445712869,1.0,0.9205882352941176,0.40981083888756603,0.8842105263157894,6.071734099998139
121,6.306247892640888e-05,0.6110462021827697,0.9709090909090909,0.42043589573157464,0.875,0.8740721219995546,1.0,0.9352941176470588,0.41066545248031616,0.8842105263157894,6.07238349999534
122,5.899764012922409e-05,0.6035896848548542,0.9602272727272727,0.4240271320468501,0.8855263157894737,0.8846741858583348,1.0,0.9352941176470588,0.4117440484072033,0.8842105263157894,6.058971099999326
123,5.5056160955870474e-05,0.5873520347205076,0.9676136363636364,0.41025519025953194,0.8921052631578947,0.8914643595287753,1.0,0.9397058823529412,0.4124160374465742,0.8868421052631579,6.075006299994129
124,5.1240054717474066e-05,0.5987909529425881,0.9511363636363637,0.4064193722448851,0.8855263157894737,0.8847239419090439,1.0,0.9397058823529412,0.41283645629882815,0.8842105263157894,6.167307100004109
125,4.755127068455278e-05,0.6197737682949412,0.9631818181818181,0.4116398469397896,0.8894736842105263,0.8886370392892132,1.0,0.9411764705882353,0.4130524478460613,0.8842105263157894,6.3598087999998825
126,4.399169309132677e-05,0.6156530439853668,0.9604545454545454,0.4354723877028415,0.8842105263157894,0.8833775611394648,1.0,0.9352941176470588,0.41378655653250845,0.8842105263157894,6.310611599998083
127,4.0563140173249585e-05,0.5892392227866433,0.9740909090909091,0.4257924537909658,0.875,0.8743193615046083,1.0,0.9308823529411765,0.414054589836221,0.8855263157894737,6.2799078000025474
128,3.726736323825278e-05,0.6022418108853427,0.9630681818181818,0.42595504051760624,0.881578947368421,0.881128058139985,1.0,0.9367647058823529,0.4144386693050987,0.8868421052631579,6.309568600001512
129,3.41060457721751e-05,0.642609929821708,0.9576136363636364,0.42533954789764,0.8842105263157894,0.8835131831494742,1.0,0.9338235294117647,0.41414963508907116,0.8868421052631579,6.1991295000043465
130,3.1080802578837415e-05,0.5942492883855647,0.9664772727272727,0.3998291018762087,0.8881578947368421,0.8875246022246881,1.0,0.9426470588235294,0.41309268254982795,0.8868421052631579,6.211337599997933
131,2.8193178955198895e-05,0.624807064966722,0.9586363636363636,0.4121110213430304,0.8855263157894737,0.8848557641455601,1.0,0.9352941176470588,0.4130824841951069,0.8868421052631579,6.234667899996566
132,2.544464990201774e-05,0.6114407086372375,0.9680681818181818,0.4304716401978543,0.8736842105263158,0.872888482682848,1.0,0.9308823529411765,0.4133223279526359,0.8868421052631579,6.181066600001941
133,2.283661937042025e-05,0.6207099333676425,0.9502272727272727,0.4005483517521306,0.8868421052631579,0.8865432366235073,1.0,0.9382352941176471,0.4135904001562219,0.8868421052631579,6.174214700004086
134,2.0370419544760518e-05,0.6418383126909083,0.9526136363636364,0.4148813341793261,0.8802631578947369,0.8796059056573039,1.0,0.9308823529411765,0.41405402704289085,0.8868421052631579,6.18807409999863
135,1.804731016213988e-05,0.6136566641113975,0.9644318181818182,0.4069457198444166,0.8802631578947369,0.8796112202060277,1.0,0.9338235294117647,0.41415714496060424,0.8842105263157894,6.213690399999905
136,1.5868477868931964e-05,0.5951291317289525,0.9622727272727273,0.4194179732548563,0.8789473684210526,0.8777344127195438,1.0,0.9382352941176471,0.4134600990696957,0.8828947368421053,6.209535900001356
137,1.3835035614642541e-05,0.5859428617087278,0.97125,0.40735501772479005,0.8855263157894737,0.8847055598808531,1.0,0.9352941176470588,0.4128339670206371,0.8855263157894737,6.230163800006267
138,1.1948022083414199e-05,0.6474751929803328,0.9411363636363637,0.4329233263668261,0.881578947368421,0.880354863594393,1.0,0.9308823529411765,0.41410068681365564,0.8855263157894737,6.201227300000028
139,1.0208401163465185e-05,0.6423940191485665,0.9475,0.4287459919327184,0.875,0.8742472530838363,1.0,0.9338235294117647,0.41545671067739787,0.8855263157894737,6.212435599998571
140,8.617061454734755e-06,0.6149658304994756,0.9463636363636364,0.40858427317518936,0.8842105263157894,0.8834367788750624,1.0,0.9367647058823529,0.41561781262096603,0.8868421052631579,6.164149599993834
141,7.1748158149852224e-06,0.5900946808945049,0.9680681818181818,0.40904713649498786,0.8828947368421053,0.8821726435856204,1.0,0.9323529411764706,0.4151254763728694,0.8855263157894737,6.2397808999958215
142,5.882400944593751e-06,0.567241819338365,0.9775,0.3945040658900612,0.8921052631578947,0.8915335016945531,1.0,0.9352941176470588,0.41391914831964594,0.8881578947368421,6.23534749999817
143,4.740477010244959e-06,0.5701737604357979,0.9725,0.3892271753988768,0.8907894736842106,0.8903570022700222,1.0,0.9382352941176471,0.4128550488697855,0.8881578947368421,6.218553300001076
144,3.7496273077172435e-06,0.57051079435782,0.9754545454545455,0.39390443532090436,0.8881578947368421,0.8878268890483298,1.0,0.9382352941176471,0.41159932895710594,0.8881578947368421,6.214375599993218
145,2.9103579639347222e-06,0.584707879261537,0.9604545454545454,0.40855476040589184,0.8828947368421053,0.882069418840292,1.0,0.9352941176470588,0.4108257083516372,0.8881578947368421,6.20620069999859
146,2.223097678437247e-06,0.6312388732216575,0.955,0.41003610648606953,0.8828947368421053,0.8822968640256719,1.0,0.9352941176470588,0.4119196841591283,0.8881578947368421,6.177537299998221
147,1.6881975044002091e-06,0.6300856106931513,0.9580681818181818,0.4160677869068949,0.8828947368421053,0.8821114349726509,1.0,0.9338235294117647,0.4125462591648102,0.8868421052631579,6.214495100000931
148,1.3059306693162125e-06,0.5825239153341814,0.9635227272727273,0.4168057896588978,0.8842105263157894,0.8835510396278214,1.0,0.9352941176470588,0.4121000594214389,0.8881578947368421,6.216642700004741
149,1.0764924354303636e-06,0.5682699286937714,0.9771590909090909,0.39959596332750824,0.881578947368421,0.8806517077927344,1.0,0.9367647058823529,0.41159840633994654,0.8881578947368421,6.204985700001998
150,1e-06,0.6069809306751598,0.9601136363636363,0.40884423506887335,0.8828947368421053,0.8820619739137282,1.0,0.9352941176470588,0.4118585683797535,0.8881578947368421,6.1936598000029335
