epoch,lr,train_loss,train_accuracy,val_loss,val_accuracy,val_macro_f1,val_trial_accuracy,val_k3,ema_loss,ema_accuracy,seconds
1,5.9999999999999995e-05,1.3373078437284989,0.4903409090909091,0.9484047651290893,0.6473684210526316,0.6376267708695544,0.9,0.7,1.6109426372929623,0.2,11.391555899997911
2,0.00011999999999999999,1.1752208772572603,0.6246590909090909,0.7346217343681737,0.7355263157894737,0.7220688428825239,0.85,0.7867647058823529,1.6186510550348383,0.2,11.244286299999658
3,0.00018,0.9886338472366333,0.7420454545454546,0.521963864251187,0.8447368421052631,0.8442745862673258,0.975,0.9058823529411765,1.6320145456414474,0.2,11.122912400001951
4,0.00023999999999999998,0.8967426709695295,0.8030681818181818,0.4528144271750199,0.8473684210526315,0.8455041842386688,1.0,0.9044117647058824,1.6642025571120413,0.2,11.067796699997416
5,0.0003,0.9076651675050909,0.8007954545454545,0.4797835393955833,0.8565789473684211,0.856968491978803,1.0,0.9161764705882353,1.7289589304673045,0.2,11.129519699999946
6,0.00035999999999999997,0.8661926917596297,0.8192045454545455,0.41679609198319284,0.868421052631579,0.8674599726766974,1.0,0.9161764705882353,1.8263633326480264,0.2,11.059674500000256
7,0.00042,0.8897229415720159,0.8129545454545455,0.5154181031804336,0.8263157894736842,0.8236943800742006,0.875,0.8676470588235294,1.9466719759138007,0.2,11.042720599998574
8,0.0004799999999999999,0.8462396029992537,0.83625,0.3997586601658871,0.8618421052631579,0.8607347201037712,1.0,0.9205882352941176,2.07420204501403,0.2,11.296699700000318
9,0.00054,0.8385013697364113,0.8371590909090909,0.4362331377832513,0.8486842105263158,0.8459289490826105,1.0,0.9029411764705882,2.241354209184647,0.2,11.044656900001428
10,0.0005999999999999998,0.8025660558180375,0.8548863636363636,0.4704597068460364,0.8526315789473684,0.8512860987132884,0.975,0.9,2.4586531799090534,0.2,10.77301830000215
11,0.0006,0.7969674741138112,0.8652272727272727,0.38674838354713037,0.875,0.8754551259155893,1.0,0.9220588235294118,2.7248209098452016,0.2,10.711948100000882
12,0.0005999235075645696,0.791278161352331,0.8642045454545455,0.44589638835505435,0.8513157894736842,0.8471566192256269,0.975,0.9,2.9464924062553206,0.2,10.742880500001775
13,0.0005996940693306837,0.7574829929525202,0.8784090909090909,0.44100080791272617,0.8618421052631579,0.8603316718840119,1.0,0.9147058823529411,3.135090556740761,0.2,10.620600700000068
14,0.0005993118024955998,0.7555354602770372,0.8820454545454546,0.48930212290663466,0.8381578947368421,0.8381210096884988,0.925,0.8705882352941177,3.2785769818644774,0.2,10.683818500001507
15,0.0005987769023215627,0.7069652438163757,0.8986363636363637,0.3682722210884094,0.8881578947368421,0.8876532272514497,1.0,0.9294117647058824,3.354545753880551,0.2,10.57570620000115
16,0.0005980896420360653,0.7725877224315296,0.8845454545454545,0.5032978661750492,0.8421052631578947,0.8435044119268295,0.95,0.8852941176470588,3.4155968917043587,0.2,10.600523799999792
17,0.0005972503726922827,0.7272360576282848,0.8957954545454545,0.44660548207006956,0.8460526315789474,0.8445585477239665,1.0,0.8985294117647059,3.509267224606715,0.2,10.552359299999807
18,0.0005962595229897549,0.704518989649686,0.9138636363636363,0.42777748202022753,0.881578947368421,0.880876463504751,1.0,0.9176470588235294,3.508666510331003,0.2,10.571921000002476
19,0.0005951175990554061,0.7587683263691989,0.8929545454545454,0.48301652607164886,0.843421052631579,0.8404601736752129,0.975,0.9044117647058824,3.5286818655697925,0.2,10.621307500001421
20,0.0005938251841850148,0.7043924420530145,0.9159090909090909,0.40864892256887336,0.8736842105263158,0.873355453312399,1.0,0.9411764705882353,3.5181961860311657,0.2,10.982318700000178
21,0.0005923829385452652,0.6992986005002803,0.9107954545454545,0.4009097645157262,0.8776315789473684,0.8765634675354681,0.95,0.9264705882352942,3.482743513976273,0.2,10.674118499999167
22,0.0005907915988365347,0.6802164277163418,0.9165909090909091,0.4727559136716943,0.8552631578947368,0.8555769608082135,0.975,0.9073529411764706,3.4927825126208756,0.2,10.745213000001968
23,0.0005890519779165858,0.7174571093645963,0.9122727272727272,0.415558585995122,0.8710526315789474,0.8675775069712441,0.975,0.9161764705882353,3.446379169743312,0.2,10.723467899999378
24,0.0005871649643853574,0.6568120312690735,0.9321590909090909,0.41529645480607685,0.881578947368421,0.8807496950143046,1.0,0.9441176470588235,3.38675986849948,0.2,10.596876899999188
25,0.000585131522131068,0.6387833611531691,0.9325,0.4283547244573894,0.8697368421052631,0.8690059481370032,1.0,0.9279411764705883,3.3364797487070685,0.2,10.620238300001802
26,0.0005829526898378601,0.6738325838609175,0.9252272727272727,0.39671747276657504,0.8868421052631579,0.886231599570227,1.0,0.9441176470588235,3.301889600094996,0.2,10.657889900001464
27,0.0005806295804552395,0.6826596547256817,0.9260227272727273,0.42720814849201,0.8802631578947369,0.879515135763665,1.0,0.9338235294117647,3.2355811669638284,0.2,11.176372699999774
28,0.0005781633806295796,0.6593064509738575,0.9292045454545454,0.4203529361047243,0.8881578947368421,0.8879701980521295,1.0,0.925,3.1630401610543855,0.2,11.535459900002024
29,0.0005755553500979822,0.6701516337828203,0.9279545454545455,0.40532812883979397,0.8789473684210526,0.879563241411847,1.0,0.9235294117647059,3.0494920430999053,0.20657894736842106,11.207131999999547
30,0.0005728068210448012,0.6423648897084323,0.9293181818181818,0.43261943616365134,0.8618421052631579,0.8624693996654186,0.975,0.9294117647058824,2.8911362098235833,0.21447368421052632,11.45875850000084
31,0.0005699191974211625,0.6504508434642445,0.9372727272727273,0.4077672468988519,0.8697368421052631,0.8687007678928861,1.0,0.9205882352941176,2.6685956052259394,0.24078947368421053,11.456659999999829
32,0.0005668939542278249,0.6665096454186873,0.9275,0.4608375147769326,0.8592105263157894,0.858353061924159,0.975,0.8955882352941177,2.3722972270689513,0.28289473684210525,11.37789089999933
33,0.0005637326367617472,0.6391317241842096,0.9363636363636364,0.42459624566529924,0.8723684210526316,0.8715551259338812,1.0,0.925,2.0705837850507938,0.3157894736842105,11.403940799998963
34,0.0005604368598267504,0.6505118695172396,0.9398863636363637,0.5197721189574191,0.8289473684210527,0.8275267739813635,1.0,0.8941176470588236,1.7368980001462133,0.37105263157894736,11.440051000001404
35,0.0005570083069086733,0.6465012595870278,0.9418181818181818,0.45834872659884,0.8526315789473684,0.8501395380663421,1.0,0.8955882352941177,1.4174100375489185,0.44342105263157894,11.22603750000053
36,0.0005534487293154471,0.6503975785862316,0.9354545454545454,0.4598491072654724,0.8605263157894737,0.8597449032898574,0.975,0.9058823529411765,1.138167451871069,0.5368421052631579,11.37470839999878
37,0.0005497599452825259,0.6547330102053556,0.9397727272727273,0.44989295774384547,0.8447368421052631,0.8455179441519862,1.0,0.8955882352941177,0.9278753988052669,0.6302631578947369,11.424860800001625
38,0.0005459438390441295,0.6433627720312639,0.9398863636363637,0.49918331409755506,0.843421052631579,0.8443912745430616,1.0,0.9044117647058824,0.7645624258016285,0.7118421052631579,11.417147800002567
39,0.0005420023598707758,0.6698441256176342,0.94,0.49731963245492233,0.8407894736842105,0.8400477100000806,0.975,0.9117647058823529,0.6566554424009825,0.7671052631578947,11.571920899998076
40,0.0005379375210735911,0.67003549229015,0.9296590909090909,0.4462121518034684,0.8578947368421053,0.8560808047873468,0.975,0.9147058823529411,0.5851044910518747,0.8039473684210526,11.917141599999013
41,0.0005337513989759092,0.6165954653783278,0.9521590909090909,0.44646562369246234,0.8671052631578947,0.8664050213421441,0.95,0.9014705882352941,0.5378929539730675,0.8289473684210527,12.267604000000574
42,0.0005294461318526833,0.6255615279891275,0.9468181818181818,0.4387477269298152,0.843421052631579,0.8422592980386338,1.0,0.9191176470588235,0.5023694893247203,0.8381578947368421,12.041984600000433
43,0.0005250239188382536,0.6634546329758384,0.9293181818181818,0.46602120713183753,0.8473684210526315,0.8472198420354307,0.975,0.9029411764705882,0.47581064324629935,0.8526315789473684,12.002708899999561
44,0.0005204870188030272,0.6691475980932062,0.9255681818181818,0.43600881523207613,0.8657894736842106,0.8664971352483711,0.975,0.9205882352941176,0.45165417257108187,0.8565789473684211,11.930287899998802
45,0.0005158377491996452,0.6352374893968755,0.9434090909090909,0.4548661072003214,0.8657894736842106,0.8652532829206893,1.0,0.9161764705882353,0.4328148694414842,0.8697368421052631,11.86485029999676
46,0.0005110784848792257,0.6171504957025702,0.9530681818181819,0.518086083939201,0.8223684210526315,0.8209685613846283,0.95,0.8838235294117647,0.4146234609578785,0.868421052631579,11.806688799999392
47,0.0005062116568782877,0.6381120618906888,0.9453409090909091,0.40478447299254566,0.8881578947368421,0.8884188653924548,1.0,0.9426470588235294,0.4064806492705094,0.875,11.559203900000284
48,0.0005012397511769754,0.6412027545408769,0.9432954545454545,0.45862828273522227,0.868421052631579,0.8690647868415574,0.975,0.9147058823529411,0.4005263871268222,0.8763157894736842,11.494574000000284
49,0.0004961653074292177,0.6423114495927638,0.9415909090909091,0.4031230728877218,0.875,0.8752470495633032,1.0,0.9235294117647059,0.39799507511289495,0.8723684210526316,11.498228299999028
50,0.0004909909176654702,0.6196802852370522,0.9507954545454546,0.46858564725047663,0.8539473684210527,0.8555314861792518,1.0,0.9088235294117647,0.3936521420353337,0.8763157894736842,12.223306500000035
51,0.00048571922496870357,0.6171266113628041,0.9457954545454546,0.4193732405963697,0.8710526315789474,0.8697498198712286,1.0,0.9147058823529411,0.3909005205882223,0.8789473684210526,12.325806199998624
52,0.00048035292212431514,0.625164564739574,0.9493181818181818,0.4247355404653047,0.8710526315789474,0.8707735919668993,0.975,0.9264705882352942,0.3879652327612827,0.8828947368421053,12.200745199999801
53,0.0004748947502446508,0.6654275276444175,0.9467045454545454,0.43858626547612645,0.8763157894736842,0.8763357788316928,0.975,0.9220588235294118,0.3874922893549267,0.8868421052631579,12.000077999997302
54,0.00046934749736884306,0.624491380778226,0.9445454545454546,0.4170143547811006,0.8763157894736842,0.875125957880894,1.0,0.9323529411764706,0.3847822490491365,0.8894736842105263,12.154925200000434
55,0.0004637139970386777,0.6474084524674849,0.9352272727272727,0.4659955463911358,0.8631578947368421,0.8612881020323238,1.0,0.9102941176470588,0.38221122308781275,0.8921052631578947,13.007213700002467
56,0.000457997126851218,0.6049229831045324,0.9517045454545454,0.3861208068697076,0.8842105263157894,0.8840712490015546,1.0,0.9426470588235294,0.380347803705617,0.8907894736842106,14.360780899998645
57,0.00045219980698892607,0.5973735386675054,0.9610227272727273,0.38659073584958126,0.8921052631578947,0.8916920374925477,1.0,0.9352941176470588,0.3768635407874459,0.8947368421052632,14.173762800000986
58,0.0004463249987280305,0.6355080936171792,0.9509090909090909,0.42402640957581367,0.868421052631579,0.867883090474573,1.0,0.9323529411764706,0.3760132648442921,0.8921052631578947,12.419721900001605
59,0.000440375702925904,0.6157309566844593,0.9540909090909091,0.36176593240938687,0.9013157894736842,0.9009658076488238,1.0,0.9441176470588235,0.3762444753395884,0.8907894736842106,12.128814700001385
60,0.0004343549584882226,0.6452247862382369,0.9456818181818182,0.4216968741856123,0.8776315789473684,0.8787158724168803,1.0,0.9235294117647059,0.37643757838951913,0.8934210526315789,12.010800799998833
61,0.00042826584081669025,0.641317394321615,0.9385227272727272,0.5618555363855864,0.8092105263157895,0.8046998311887068,0.975,0.85,0.3756077411927675,0.8960526315789473,13.218949599999178
62,0.00042211146023812037,0.6092135279828852,0.9495454545454546,0.40871304963764393,0.8736842105263158,0.8738267040675973,0.975,0.9279411764705883,0.3761184297109905,0.8947368421052632,12.349106499998015
63,0.0004158949604156783,0.6031638120521199,0.9623863636363637,0.46495248894942437,0.8539473684210527,0.8546195796237477,0.975,0.913235294117647,0.37766498735076504,0.8947368421052632,12.221046000002389
64,0.0004096195167430953,0.6552211473204873,0.9428409090909091,0.4160950519536671,0.8842105263157894,0.884135202248135,1.0,0.9426470588235294,0.3766108854820854,0.8921052631578947,13.635432300001412
65,0.0004032883347226749,0.6289811884273182,0.9570454545454545,0.40623875636803475,0.8842105263157894,0.883153870298304,1.0,0.9338235294117647,0.3770225123355263,0.8907894736842106,13.3206274999975
66,0.0003969046483279189,0.6017053899981759,0.9567045454545454,0.4395421087741852,0.8723684210526316,0.8734363430121066,1.0,0.9102941176470588,0.37551161019425644,0.8921052631578947,13.17373310000039
67,0.0003904717183516109,0.6174641466140747,0.9539772727272727,0.38551145948861776,0.8907894736842106,0.8909419770192925,1.0,0.9367647058823529,0.3760599644560563,0.8947368421052632,12.81847530000232
68,0.0003839928307402005,0.6261321021210063,0.9509090909090909,0.40700777863201343,0.8763157894736842,0.8763221307291544,1.0,0.9264705882352942,0.3755990674621181,0.8947368421052632,12.674555699999473
69,0.00037747129491533916,0.6095365010608327,0.9585227272727272,0.4127435781453785,0.8842105263157894,0.8836476802933471,1.0,0.9308823529411765,0.3728165472808637,0.8934210526315789,12.488966799999616
70,0.0003709104420834241,0.6246303733912382,0.9459090909090909,0.438991105556488,0.8723684210526316,0.872128510428204,1.0,0.913235294117647,0.3728919584500162,0.8934210526315789,12.369440099999338
71,0.00036431362353401533,0.6250705523924394,0.9573863636363636,0.44083541067023024,0.8644736842105263,0.8640383334178926,1.0,0.9102941176470588,0.374261957093289,0.8934210526315789,12.229127499998867
72,0.0003576842089279937,0.6289645204760812,0.9502272727272727,0.41285729659231085,0.8723684210526316,0.8732609590964623,1.0,0.9220588235294118,0.3772956443460364,0.8907894736842106,12.194966400002158
73,0.0003510255845763356,0.6411634305390445,0.9422727272727273,0.4363605681218599,0.8671052631578947,0.8662591889461438,1.0,0.9073529411764706,0.3793073550650948,0.8921052631578947,12.266577899998083
74,0.0003443411517103819,0.5960301078449596,0.9535227272727272,0.40761160662299706,0.8710526315789474,0.8705859939378527,1.0,0.913235294117647,0.380130367216311,0.8907894736842106,12.198725400001422
75,0.0003376343247444856,0.6258207660371607,0.9490909090909091,0.43012631064967105,0.8697368421052631,0.870525656753785,1.0,0.9323529411764706,0.3788009232596347,0.8921052631578947,12.277245700002823
76,0.0003309085295319264,0.6029239892959595,0.9606818181818182,0.4397320402295966,0.8736842105263158,0.8739889883135229,1.0,0.9205882352941176,0.3805556457293661,0.8881578947368421,12.226675799996883
77,0.0003241672016149815,0.6403439803556963,0.9417045454545454,0.4132245521796377,0.8907894736842106,0.8906034845964357,1.0,0.9367647058823529,0.3812024568256579,0.8868421052631579,12.190013499999623
78,0.00031741378447004763,0.6461273954131387,0.9475,0.4370976507663727,0.8763157894736842,0.876689582534126,1.0,0.9205882352941176,0.3808437940321471,0.8894736842105263,12.357590999999957
79,0.00031065172774871004,0.6288794369047338,0.9503409090909091,0.4166330428499925,0.8723684210526316,0.872106158023229,1.0,0.9279411764705883,0.38199816283426785,0.8881578947368421,12.26951139999801
80,0.00030388448551565744,0.6205045747756958,0.9510227272727273,0.42262151555011146,0.875,0.8748638166668377,1.0,0.9220588235294118,0.38282273976426373,0.8894736842105263,12.446029499998986
81,0.0002971155144843426,0.5950286503271623,0.9604545454545454,0.4186481686014878,0.8697368421052631,0.8692427680376265,1.0,0.9191176470588235,0.3826134123300251,0.8881578947368421,12.328146700001525
82,0.0002903482722512899,0.6452903164516796,0.9486363636363636,0.44409006928142747,0.8710526315789474,0.8719758900668472,1.0,0.9117647058823529,0.38259490132331847,0.8894736842105263,12.20061480000004
83,0.0002835862155299524,0.6132793706113642,0.9557954545454546,0.3917906914886675,0.8907894736842106,0.8904717940357546,1.0,0.9367647058823529,0.3829077479086424,0.8894736842105263,12.207675200002996
84,0.00027683279838501855,0.6175320581956343,0.9534090909090909,0.4088912967004274,0.8802631578947369,0.8796998795842927,1.0,0.9382352941176471,0.3820643779478575,0.8907894736842106,12.144581600001402
85,0.00027009147046807365,0.6444532067125494,0.9439772727272727,0.43188484656183346,0.8723684210526316,0.8730989732305776,1.0,0.9176470588235294,0.3826968136586641,0.8894736842105263,12.152081200001703
86,0.0002633656752555145,0.6110388385165821,0.9601136363636363,0.42379989718136035,0.875,0.8744065314761249,1.0,0.9308823529411765,0.38332591746982775,0.8881578947368421,12.21033929999976
87,0.00025665884828961807,0.5733643655343489,0.9751136363636363,0.4190736466332486,0.8855263157894737,0.8860012475317893,0.975,0.9338235294117647,0.38471571175675645,0.8868421052631579,12.207288199999311
88,0.00024997441542366436,0.5856489519639448,0.9665909090909091,0.4320434576586673,0.8697368421052631,0.869776068804635,1.0,0.9191176470588235,0.3843055329824749,0.8881578947368421,12.261877599998115
89,0.00024331579107200632,0.588373247276653,0.96625,0.41115413527739675,0.8802631578947369,0.8807866106003285,1.0,0.925,0.3842201242321416,0.8868421052631579,12.305039200000465
90,0.0002366863764659847,0.5973425869508223,0.9661363636363637,0.39549608638412076,0.8855263157894737,0.8853000948538705,1.0,0.9279411764705883,0.3830625424259587,0.8881578947368421,12.350622400001157
91,0.0002300895579165759,0.6091260783238844,0.9595454545454546,0.442386910162474,0.8671052631578947,0.8667513771021957,1.0,0.9191176470588235,0.3824914226406499,0.8921052631578947,12.09376329999941
92,0.0002235287050846607,0.5742207553169945,0.9673863636363637,0.4273939427576567,0.875,0.8754416600243757,1.0,0.9338235294117647,0.38239733953224986,0.8921052631578947,12.29921049999757
93,0.00021700716925979942,0.6044517913731662,0.9544318181818182,0.4353437731140538,0.8644736842105263,0.8640638130615169,0.975,0.9220588235294118,0.3820548211273394,0.8934210526315789,12.259146000000328
94,0.00021052828164838913,0.6231274253671819,0.9590909090909091,0.4331673065298482,0.875,0.8762290466204401,0.975,0.913235294117647,0.3839163927655471,0.8947368421052632,12.199088999997912
95,0.00020409535167208103,0.6490099453926086,0.9588636363636364,0.4222388019687251,0.881578947368421,0.8814426194455363,1.0,0.9264705882352942,0.38416153788566587,0.8921052631578947,12.249724700002844
96,0.00019771166527732506,0.598038097186522,0.9614772727272727,0.4401930962738238,0.8763157894736842,0.8767214350689256,0.975,0.9220588235294118,0.3857350409030914,0.8881578947368421,12.193361499997991
97,0.00019138048325690465,0.623213894367218,0.955,0.4305739553351151,0.8763157894736842,0.8762207178399148,0.95,0.9058823529411765,0.3889713083442889,0.8921052631578947,12.252331700001378
98,0.00018510503958432174,0.589143204797398,0.9697727272727272,0.4165092866671713,0.881578947368421,0.8813673776387233,0.975,0.9205882352941176,0.3903171740080181,0.8894736842105263,12.267184299998917
99,0.0001788885397618797,0.6013802541385997,0.9635227272727273,0.4325808479597694,0.8723684210526316,0.8721546138660867,0.975,0.9205882352941176,0.39307126434225786,0.8921052631578947,12.210714600001666
100,0.00017273415918330973,0.6205739630352367,0.9645454545454546,0.43135440224095395,0.8736842105263158,0.8735986940194221,1.0,0.9220588235294118,0.39462477062877854,0.8907894736842106,12.202798299997085
101,0.00016664504151177735,0.5920374357700348,0.9590909090909091,0.4330514601970974,0.8776315789473684,0.8781857037921507,0.975,0.9117647058823529,0.39601673232881646,0.8907894736842106,12.243819800001802
102,0.00016062429707409598,0.5922901979359714,0.9651136363636363,0.45226143253476997,0.8723684210526316,0.872544600543101,0.975,0.9191176470588235,0.3989250183105469,0.8894736842105263,12.16976010000144
103,0.00015467500127196946,0.5865275274623524,0.9713636363636363,0.424549463861867,0.8842105263157894,0.8849461665340957,1.0,0.925,0.3997448560438658,0.8907894736842106,12.269955200001277
104,0.0001488001930110739,0.5977266107905995,0.9578409090909091,0.4164589339180996,0.8842105263157894,0.8848071654317733,1.0,0.9220588235294118,0.40043696416051766,0.8960526315789473,12.19839100000172
105,0.00014300287314878202,0.6187582934986461,0.9639772727272727,0.42389168990285775,0.8776315789473684,0.8787794029302128,1.0,0.9117647058823529,0.3990703372578872,0.8973684210526316,12.217480299997987
106,0.00013728600296132235,0.6189242745529522,0.9480681818181819,0.41584553059778717,0.8842105263157894,0.8848201414465537,0.975,0.9205882352941176,0.398376423747916,0.8986842105263158,12.304158799997822
107,0.00013165250263115694,0.6109603635831312,0.9702272727272727,0.439537690501464,0.875,0.8758697869988191,0.975,0.9235294117647059,0.3981010433874632,0.8986842105263158,12.242493800000375
108,0.0001261052497553492,0.6147922416166826,0.9617045454545454,0.40156611455114266,0.8934210526315789,0.8936956408392485,1.0,0.9264705882352942,0.39659415734441655,0.8986842105263158,12.248938100001396
109,0.0001206470778756849,0.5847678364406933,0.9738636363636364,0.3867340890984786,0.9013157894736842,0.9013075877247859,1.0,0.9382352941176471,0.3957849195128993,0.8986842105263158,12.182698099997651
110,0.0001152807750312964,0.5818903318318454,0.97,0.4051667875365207,0.8868421052631579,0.8871805981479539,1.0,0.9338235294117647,0.3946271391291367,0.9013157894736842,12.199738600000273
111,0.00011000908233452982,0.5880687932534652,0.9630681818181818,0.4513650197731821,0.8736842105263158,0.8732361895307355,1.0,0.9308823529411765,0.3956031802453493,0.9013157894736842,12.179349800000637
112,0.00010483469257078224,0.6040920316089283,0.9625,0.41770091903837103,0.8934210526315789,0.8936881423330636,1.0,0.9352941176470588,0.3985476437367891,0.9,12.195460700000694
113,9.976024882302456e-05,0.5953443031961267,0.9613636363636363,0.42584951331740933,0.8973684210526316,0.8978005261022952,1.0,0.9308823529411765,0.3997602371793044,0.8986842105263158,12.299301699997159
114,9.478834312171236e-05,0.5628151749480854,0.9777272727272728,0.4383232527657559,0.875,0.8753260211999263,0.975,0.9176470588235294,0.40041616402174296,0.9,12.313551999999618
115,8.992151512077429e-05,0.6048145523938265,0.9613636363636363,0.4348762913754112,0.8802631578947369,0.8809642740662997,0.975,0.9264705882352942,0.4035467050577465,0.8973684210526316,12.383881400000973
116,8.516225080035476e-05,0.5918688611550764,0.9704545454545455,0.42666971212939214,0.8828947368421053,0.8829021040559726,1.0,0.9264705882352942,0.405392134817023,0.8960526315789473,12.280699000002642
117,8.051298119697266e-05,0.5737355084852739,0.9710227272727273,0.44558940702363065,0.8657894736842106,0.8669901930241,0.975,0.9205882352941176,0.40695274817316157,0.8934210526315789,12.23199360000217
118,7.597608116174637e-05,0.584500439600511,0.9725,0.4465685784816742,0.8776315789473684,0.8771420854941041,1.0,0.925,0.4083997622916573,0.8907894736842106,12.344961800001329
119,7.155386814731662e-05,0.5852116617289457,0.9681818181818181,0.40479286595394737,0.8855263157894737,0.8856289160538197,1.0,0.9367647058823529,0.408665144443512,0.8921052631578947,12.266855800000485
120,6.724860102409081e-05,0.5889055978168141,0.9601136363636363,0.3968686558698353,0.8894736842105263,0.889292937226881,1.0,0.9352941176470588,0.40740790147530404,0.8921052631578947,12.260079300001962
121,6.306247892640888e-05,0.6017092816396193,0.9740909090909091,0.41326803941475715,0.8842105263157894,0.8844026571658402,1.0,0.925,0.40713790027718794,0.8907894736842106,12.186066700000083
122,5.899764012922409e-05,0.5566868009350516,0.9768181818181818,0.4227718955592105,0.8763157894736842,0.8765319938413546,1.0,0.9205882352941176,0.40768408587104393,0.8907894736842106,12.34722630000033
123,5.5056160955870474e-05,0.5922448255799033,0.9626136363636364,0.42260011309071593,0.881578947368421,0.8816696295071061,1.0,0.9235294117647059,0.40885387313993354,0.8907894736842106,12.305256800002098
124,5.1240054717474066e-05,0.5796809709072113,0.9704545454545455,0.4263013347199089,0.8736842105263158,0.8739332816939532,1.0,0.9161764705882353,0.4106202771789149,0.8881578947368421,12.187777999999525
125,4.755127068455278e-05,0.554767810864882,0.9714772727272727,0.44918967861878245,0.8723684210526316,0.8719348997540939,0.975,0.9220588235294118,0.41127648698656183,0.8855263157894737,12.299796100000094
126,4.399169309132677e-05,0.5662910614230416,0.9696590909090909,0.43561827101205525,0.8763157894736842,0.8770470312512229,0.975,0.9147058823529411,0.4133091986179352,0.8842105263157894,12.19670699999915
127,4.0563140173249585e-05,0.5616977275501598,0.982840909090909,0.41169883389221995,0.8842105263157894,0.8837796049532176,1.0,0.9264705882352942,0.41337151684259116,0.8855263157894737,12.23210260000269
128,3.726736323825278e-05,0.566677588116039,0.9703409090909091,0.4328915238380432,0.8802631578947369,0.8804977746858249,0.975,0.9147058823529411,0.4129103804889478,0.8828947368421053,12.216024299999845
129,3.41060457721751e-05,0.5809326804767956,0.9768181818181818,0.4166380226612091,0.8736842105263158,0.8737248937453765,1.0,0.9235294117647059,0.4135816881531163,0.8828947368421053,12.209746199998335
130,3.1080802578837415e-05,0.5796735017949884,0.9740909090909091,0.41614733275614285,0.8855263157894737,0.8858806814562336,1.0,0.925,0.4134647570158306,0.8842105263157894,12.225524200002837
131,2.8193178955198895e-05,0.6720923506129872,0.94625,0.4377500838355014,0.8789473684210526,0.879150708649912,0.975,0.9220588235294118,0.41598077039969594,0.881578947368421,12.379238400000759
132,2.544464990201774e-05,0.5918297003615987,0.9693181818181819,0.42105375591077304,0.8776315789473684,0.8778289510101361,0.975,0.9220588235294118,0.417252389694515,0.881578947368421,12.189985899996827
133,2.283661937042025e-05,0.5800099927728827,0.9720454545454545,0.42853915503150536,0.8763157894736842,0.8764948764458591,0.975,0.9235294117647059,0.41718212021024603,0.8802631578947369,11.835533600002236
134,2.0370419544760518e-05,0.5832559818571265,0.96875,0.43063587420865107,0.868421052631579,0.8694047657417565,0.975,0.913235294117647,0.4182376249840385,0.8789473684210526,11.792065999998158
135,1.804731016213988e-05,0.5691876409270546,0.9704545454545455,0.43132508993148805,0.875,0.8750229383340054,0.975,0.9161764705882353,0.4186714567636189,0.8776315789473684,11.723265299999184
136,1.5868477868931964e-05,0.5407210110534321,0.9765909090909091,0.4405572179116701,0.8736842105263158,0.8736370106320266,0.975,0.9073529411764706,0.41888226898092973,0.8763157894736842,11.538196499997866
137,1.3835035614642541e-05,0.5981308020244945,0.97625,0.4220538481285698,0.8776315789473684,0.8778648768335268,1.0,0.925,0.4192220593753614,0.8789473684210526,11.545759999997244
138,1.1948022083414199e-05,0.5938661323894154,0.9682954545454545,0.41186932952780475,0.8828947368421053,0.8827102339379731,0.975,0.9264705882352942,0.4198544154041692,0.8789473684210526,11.55165240000133
139,1.0208401163465185e-05,0.5796205347234552,0.97125,0.4244278747784464,0.8763157894736842,0.8764657142672553,1.0,0.9205882352941176,0.4208504118417439,0.8763157894736842,11.52639790000103
140,8.617061454734755e-06,0.565620202476328,0.97625,0.4193186706618259,0.8776315789473684,0.8776953364317637,0.975,0.9264705882352942,0.4214627708259382,0.875,11.549778000000515
141,7.1748158149852224e-06,0.5879493951797485,0.9631818181818181,0.4371205370677145,0.8710526315789474,0.8712328682611513,0.975,0.9117647058823529,0.42231132105777136,0.875,11.619303600000421
142,5.882400944593751e-06,0.5588444062796506,0.9797727272727272,0.4250356181671745,0.8736842105263158,0.8740138456372982,0.975,0.9205882352941176,0.42241684668942503,0.875,11.537937200002489
143,4.740477010244959e-06,0.5805097098784013,0.9720454545454545,0.4405532030682815,0.8723684210526316,0.8728287748468808,0.975,0.9102941176470588,0.4224432703695799,0.875,11.466234299998177
144,3.7496273077172435e-06,0.592614639563994,0.9585227272727272,0.429984565471348,0.875,0.8753608250571935,0.975,0.913235294117647,0.42287758337823966,0.8763157894736842,11.56368989999828
145,2.9103579639347222e-06,0.5622976766933094,0.9752272727272727,0.4146573512177718,0.8828947368421053,0.8830369848137994,0.975,0.9220588235294118,0.4229466494761015,0.8763157894736842,11.500378699998691
146,2.223097678437247e-06,0.5878135619380257,0.9661363636363637,0.42670007002981086,0.875,0.8752362029289248,0.975,0.9176470588235294,0.42310196631833125,0.8763157894736842,11.515123599998333
147,1.6881975044002091e-06,0.5855024371363899,0.9735227272727273,0.4201718785260853,0.8789473684210526,0.8789744947364211,0.975,0.9176470588235294,0.42314589745119996,0.8763157894736842,11.488955699998769
148,1.3059306693162125e-06,0.5549618728594347,0.980909090909091,0.41282902705041985,0.8828947368421053,0.883003133657781,0.975,0.9235294117647059,0.42239371789129154,0.8763157894736842,11.460954700000002
149,1.0764924354303636e-06,0.5637095665931702,0.9811363636363636,0.4442673538860522,0.8776315789473684,0.877906530211734,0.975,0.9117647058823529,0.4218187037267183,0.8776315789473684,11.60118650000004
150,1e-06,0.5958849980614402,0.9559090909090909,0.4289099445468501,0.8736842105263158,0.8737599061384952,0.975,0.9220588235294118,0.4220288728412829,0.8776315789473684,11.51901530000032
