epoch,lr,train_loss,train_accuracy,val_loss,val_accuracy,val_macro_f1,val_trial_accuracy,val_k3,ema_loss,ema_accuracy,seconds
1,5.9999999999999995e-05,1.3003922436454078,0.5177272727272727,0.8934050610190943,0.6552631578947369,0.64577649412538,0.875,0.7014705882352941,1.61119063653444,0.2,14.247443699998257
2,0.00011999999999999999,1.0890263964913107,0.6740909090909091,0.6792492941806191,0.756578947368421,0.736657558672963,0.85,0.7897058823529411,1.6177682976973684,0.2,14.074203300006047
3,0.00018,0.9448366204175083,0.7626136363636363,0.49366043523738257,0.8118421052631579,0.8112738152218049,1.0,0.8911764705882353,1.6361880691427932,0.2,14.092677200002072
4,0.00023999999999999998,0.8759132942286405,0.8096590909090909,0.3677187210635135,0.8710526315789474,0.8706012905517776,1.0,0.9264705882352942,1.671637282873455,0.2,14.06962609999755
5,0.0003,0.8755220653794028,0.8121590909090909,0.4572324249305223,0.8394736842105263,0.8417432076224853,1.0,0.8823529411764706,1.7268683170017443,0.2,14.100926200000686
6,0.00035999999999999997,0.8497276804663918,0.8271590909090909,0.3986467568497909,0.8565789473684211,0.8568292086072977,1.0,0.9264705882352942,1.8029875090247707,0.2,14.100882599996112
7,0.00042,0.7949489019133827,0.8485227272727273,0.4164766965728057,0.8552631578947368,0.8573013952252326,0.95,0.9220588235294118,1.8937467863685207,0.2,14.082268300000578
8,0.0004799999999999999,0.8568653587861494,0.8410227272727273,0.42003175898602135,0.8710526315789474,0.8715403193122835,1.0,0.9455882352941176,2.011405222666891,0.2,14.053476900000533
9,0.00054,0.8312910101630471,0.8440909090909091,0.4009219216672998,0.8855263157894737,0.8852513102842032,0.95,0.9338235294117647,2.1514918277138158,0.2,14.089828000003763
10,0.0005999999999999998,0.788130035833879,0.852840909090909,0.38058797026935376,0.881578947368421,0.8793085639646163,0.975,0.9426470588235294,2.309303687120739,0.2,14.081508600000234
11,0.0006,0.8145138458772139,0.8526136363636364,0.35681106228577464,0.8894736842105263,0.888896143490023,1.0,0.9382352941176471,2.461686626233553,0.2,14.064362099998107
12,0.0005999235075645696,0.7894942157918756,0.8779545454545454,0.4896306916287071,0.8368421052631579,0.8324182593857732,0.9,0.8852941176470588,2.627968880377318,0.2,14.081674300003215
13,0.0005996940693306837,0.7632164777408946,0.8767045454545455,0.4577852769901878,0.875,0.8723337868590126,1.0,0.9235294117647059,2.7349281712582236,0.2,14.097862399998121
14,0.0005993118024955998,0.7529604814269326,0.8870454545454546,0.47795392149373106,0.843421052631579,0.8454203281581808,0.95,0.9088235294117647,2.8423577553347537,0.2,14.103640400004224
15,0.0005987769023215627,0.7437283190813931,0.8877272727272727,0.35468892611955344,0.8921052631578947,0.8921256216854584,1.0,0.9441176470588235,2.908002673952203,0.2,14.074926000001142
16,0.0005980896420360653,0.7263428672877225,0.9040909090909091,0.39734938740730286,0.8802631578947369,0.8812294778563503,0.975,0.9264705882352942,2.939623379079919,0.2,14.090398600004846
17,0.0005972503726922827,0.75738506750627,0.8877272727272727,0.39385753524930855,0.8934210526315789,0.8936123873598596,1.0,0.9529411764705882,3.021282962748879,0.2,14.086038599998574
18,0.0005962595229897549,0.7396432672847401,0.8907954545454545,0.3995953597520527,0.8736842105263158,0.872844809437353,1.0,0.9220588235294118,3.087807428209405,0.2,14.123870299998089
19,0.0005951175990554061,0.7131023706089367,0.9032954545454546,0.37637537717819214,0.8802631578947369,0.8804165336123525,1.0,0.9323529411764706,3.1249903666345697,0.2,14.08696410000266
20,0.0005938251841850148,0.6874847427281466,0.9239772727272727,0.3988846030674483,0.8776315789473684,0.8780152926737725,1.0,0.9191176470588235,3.1630322895551983,0.2026315789473684,14.09174239999993
21,0.0005923829385452652,0.658497205214067,0.9238636363636363,0.39931554417861137,0.875,0.8734110339708916,0.95,0.9352941176470588,3.19801892983286,0.2026315789473684,14.127920200000517
22,0.0005907915988365347,0.6885088402574713,0.9180681818181818,0.4199823461080852,0.8631578947368421,0.8612460474605956,1.0,0.9176470588235294,3.2065063438917463,0.20526315789473684,14.145969099998183
23,0.0005890519779165858,0.6979611442305825,0.9194318181818182,0.3839740542989028,0.8789473684210526,0.8792596530783378,1.0,0.9367647058823529,3.2494494011527615,0.20526315789473684,14.132016399998975
24,0.0005871649643853574,0.6815333784710277,0.9272727272727272,0.5333499710810812,0.8263157894736842,0.8239437740190276,0.95,0.8852941176470588,3.2856050202721043,0.20526315789473684,14.07388290000381
25,0.000585131522131068,0.6826901938698509,0.92625,0.5169370143037093,0.8342105263157895,0.8307163102075403,0.975,0.8941176470588236,3.2794754793769436,0.20657894736842106,14.071121900000435
26,0.0005829526898378601,0.6938615484671159,0.9201136363636364,0.44250219244706,0.8763157894736842,0.8771257489910986,0.95,0.9088235294117647,3.1731305574115956,0.22631578947368422,14.11137189999863
27,0.0005806295804552395,0.6657413257252086,0.9321590909090909,0.4172425916320399,0.8763157894736842,0.8753520529050922,0.975,0.9323529411764706,3.149933341929787,0.2236842105263158,14.104220700006408
28,0.0005781633806295796,0.678398522680456,0.9246590909090909,0.418020027248483,0.8789473684210526,0.8782156523382746,1.0,0.9455882352941176,3.131477758131529,0.2381578947368421,14.078315300001123
29,0.0005755553500979822,0.6424593502824957,0.93625,0.39933274952988873,0.8842105263157894,0.8849895158989927,1.0,0.9235294117647059,3.086130886328848,0.24605263157894736,14.111048599996138
30,0.0005728068210448012,0.6303360440514304,0.9405681818181818,0.4143732560308356,0.8723684210526316,0.8711386741456307,1.0,0.9147058823529411,2.976076949270148,0.2789473684210526,14.082183400001668
31,0.0005699191974211625,0.6566337167132984,0.935,0.44993216740457637,0.8552631578947368,0.8492507928080272,1.0,0.8926470588235295,2.801542342336554,0.3118421052631579,14.079223399996408
32,0.0005668939542278249,0.6552194581248544,0.9318181818181818,0.40226576987065765,0.8828947368421053,0.8824918840061574,1.0,0.9220588235294118,2.52818980907139,0.33289473684210524,14.125752199994167
33,0.0005637326367617472,0.6778818570483814,0.9243181818181818,0.3814919314886394,0.8934210526315789,0.893190592004883,1.0,0.9470588235294117,2.186289818663346,0.37763157894736843,14.075663099996746
34,0.0005604368598267504,0.6324278495528481,0.944659090909091,0.5028739126105057,0.843421052631579,0.843532381728612,0.925,0.875,1.8456881877623106,0.40921052631578947,14.076870700002473
35,0.0005570083069086733,0.6793071260235526,0.9276136363636364,0.37098966868300187,0.8934210526315789,0.89298372192802,1.0,0.9441176470588235,1.4336508506222776,0.4763157894736842,14.087217399996007
36,0.0005534487293154471,0.6285381906682794,0.9453409090909091,0.4920816132896825,0.8302631578947368,0.8301269713423569,1.0,0.8838235294117647,1.067462077893709,0.5960526315789474,14.113430899997184
37,0.0005497599452825259,0.6834252359650351,0.9263636363636364,0.44356864282959385,0.8592105263157894,0.858556871028342,1.0,0.9294117647058824,0.8485922559311515,0.6842105263157895,14.080067700000654
38,0.0005459438390441295,0.6670031690597534,0.9344318181818182,0.41042552684482775,0.8828947368421053,0.8826574255586159,1.0,0.9367647058823529,0.6948400397049753,0.7618421052631579,14.082242500000575
39,0.0005420023598707758,0.6696642024950548,0.9384090909090909,0.43205905807645695,0.8592105263157894,0.8587128306914765,1.0,0.9176470588235294,0.6058397788750498,0.7960526315789473,14.076089700000011
40,0.0005379375210735911,0.6556945586204529,0.9363636363636364,0.45046908667213037,0.8657894736842106,0.8652893006341476,1.0,0.9294117647058824,0.5575349108168953,0.8210526315789474,14.098924699996132
41,0.0005337513989759092,0.6079692669348283,0.9519318181818182,0.45933588994176766,0.8671052631578947,0.8666288664432702,0.975,0.9220588235294118,0.5164750742284875,0.8342105263157895,14.093887200004247
42,0.0005294461318526833,0.6878873192180287,0.9261363636363636,0.4131743791856264,0.8592105263157894,0.8583507834400018,1.0,0.9102941176470588,0.48156396966231496,0.8447368421052631,14.093457400005718
43,0.0005250239188382536,0.6507145335457541,0.9382954545454546,0.44248810912433423,0.8802631578947369,0.8794347688547012,1.0,0.9367647058823529,0.45366542307954083,0.8552631578947368,14.07646509999904
44,0.0005204870188030272,0.6281485249779442,0.94875,0.3807781823371586,0.8907894736842106,0.8908847928334407,1.0,0.9441176470588235,0.43548577992539655,0.8578947368421053,14.093215399996552
45,0.0005158377491996452,0.6190025975487449,0.9432954545454545,0.47019346199537576,0.8513157894736842,0.8507895711684963,1.0,0.9,0.4227175860028518,0.8671052631578947,14.063090399999055
46,0.0005110784848792257,0.6075630549951033,0.9588636363636364,0.4598269795116625,0.8526315789473684,0.8512642920634363,0.975,0.9147058823529411,0.41096149181064806,0.8671052631578947,14.101450399997702
47,0.0005062116568782877,0.653585862679915,0.9363636363636364,0.456435553651107,0.8618421052631579,0.8611248523036025,1.0,0.9117647058823529,0.39871796055843955,0.8776315789473684,14.090195600001607
48,0.0005012397511769754,0.6164514474435286,0.9538636363636364,0.4332032865599582,0.8776315789473684,0.8769009634134969,1.0,0.9220588235294118,0.3900738957681154,0.8842105263157894,14.073266799998237
49,0.0004961653074292177,0.6168596480109475,0.9560227272727273,0.42823783567077234,0.881578947368421,0.8815332482582516,1.0,0.9323529411764706,0.38267272146124587,0.8855263157894737,14.061236200002895
50,0.0004909909176654702,0.6649204297499223,0.9222727272727272,0.40460863583966306,0.8736842105263158,0.8734186203413742,1.0,0.9279411764705883,0.3797212490909978,0.8868421052631579,14.106720299998415
51,0.00048571922496870357,0.6253946549242193,0.9551136363636363,0.42095923235541893,0.8842105263157894,0.8838922682140398,1.0,0.9382352941176471,0.37530268681676765,0.8868421052631579,14.091282699999283
52,0.00048035292212431514,0.6089298501881686,0.9589772727272727,0.44593718679327715,0.8710526315789474,0.8713122249482261,1.0,0.925,0.37369340658187866,0.8894736842105263,14.068895100004738
53,0.0004748947502446508,0.6345916158502752,0.94,0.4385969870968869,0.8644736842105263,0.862892394124428,1.0,0.9044117647058824,0.3709866768435428,0.8934210526315789,14.140783700000611
54,0.00046934749736884306,0.6071816238490018,0.9561363636363637,0.515911464942129,0.8407894736842105,0.8395370162747472,1.0,0.8955882352941177,0.36908876519454153,0.8894736842105263,14.103789700006018
55,0.0004637139970386777,0.6183311954411593,0.9603409090909091,0.4328572320310693,0.8697368421052631,0.8698767677981939,1.0,0.9205882352941176,0.3689443494144239,0.8855263157894737,14.072370100002445
56,0.000457997126851218,0.6504540883411061,0.9379545454545455,0.4613404129680834,0.8605263157894737,0.8589307169702567,1.0,0.9117647058823529,0.37077640765591674,0.8868421052631579,14.079507199996442
57,0.00045219980698892607,0.6369751280004328,0.9434090909090909,0.44157447767885105,0.868421052631579,0.8682916061351807,0.95,0.9073529411764706,0.3707623337444506,0.8855263157894737,14.092130600001838
58,0.0004463249987280305,0.6361363728479905,0.9520454545454545,0.40964467917617997,0.8855263157894737,0.885910265288552,0.975,0.9294117647058824,0.37112647545965094,0.8855263157894737,14.06944850000582
59,0.000440375702925904,0.6245226216316223,0.9477272727272728,0.4505062517366911,0.8565789473684211,0.8550365335999357,0.975,0.9323529411764706,0.37044711771764255,0.8855263157894737,14.075930399994832
60,0.0004343549584882226,0.6690929506041787,0.9415909090909091,0.40700253938373765,0.8802631578947369,0.8804153551326894,0.975,0.925,0.3708103183068727,0.8855263157894737,14.085288399997808
61,0.00042826584081669025,0.6583039824529128,0.9488636363636364,0.42851273386101973,0.8710526315789474,0.8690140764495476,1.0,0.925,0.3683346196224815,0.8881578947368421,14.065190499997698
62,0.00042211146023812037,0.6122857550057498,0.9503409090909091,0.41346136331558225,0.8631578947368421,0.8619223099698278,1.0,0.9235294117647059,0.3687560028151462,0.8894736842105263,14.105736899997282
63,0.0004158949604156783,0.638184461593628,0.9493181818181818,0.4371213203982303,0.8565789473684211,0.8553858127941426,1.0,0.9044117647058824,0.3661103490151857,0.8921052631578947,14.100447400000121
64,0.0004096195167430953,0.6262566911090504,0.9476136363636364,0.40422250753954836,0.8855263157894737,0.885475408297222,1.0,0.9294117647058824,0.3664089795790221,0.8921052631578947,14.111331000000064
65,0.0004032883347226749,0.65265707265247,0.9402272727272727,0.4313069789033187,0.8736842105263158,0.872647436933712,1.0,0.9323529411764706,0.36790580718140853,0.8934210526315789,14.05350410000392
66,0.0003969046483279189,0.6234938090497797,0.9634090909090909,0.44205189723717536,0.8697368421052631,0.8683202602680034,0.975,0.9352941176470588,0.36728266634439166,0.8947368421052632,14.070618500001729
67,0.0003904717183516109,0.6405358774011786,0.9485227272727272,0.41386875447474025,0.868421052631579,0.8675811427738982,1.0,0.9308823529411765,0.36712863288427655,0.8973684210526316,14.092528699999093
68,0.0003839928307402005,0.6342990203337235,0.9519318181818182,0.426913773386102,0.8697368421052631,0.8698195455324669,1.0,0.9205882352941176,0.36824009575341876,0.8947368421052632,14.084996999998111
69,0.00037747129491533916,0.6248531452092257,0.9521590909090909,0.4255316175912556,0.8644736842105263,0.8635224696064986,1.0,0.9294117647058824,0.3719146938700425,0.8947368421052632,14.076145699997141
70,0.0003709104420834241,0.6582965168085966,0.9392045454545455,0.4483995142735933,0.8671052631578947,0.8680223281205939,0.975,0.9264705882352942,0.3714281176265917,0.8934210526315789,14.106545900001947
71,0.00036431362353401533,0.6142294872890819,0.9577272727272728,0.46719709681837185,0.8618421052631579,0.861038229231915,0.975,0.9044117647058824,0.3717585905602104,0.8881578947368421,14.082128800000646
72,0.0003576842089279937,0.6147793030738831,0.9489772727272727,0.3845441106118654,0.8868421052631579,0.8867636064130501,1.0,0.9382352941176471,0.3712018471015127,0.8907894736842106,14.0853433999946
73,0.0003510255845763356,0.6290299719030207,0.9505681818181818,0.4207294253926528,0.8657894736842106,0.8659191300389304,1.0,0.9294117647058824,0.37114534817243877,0.8881578947368421,14.078266900003655
74,0.0003443411517103819,0.6301616887612776,0.9629545454545455,0.435312652274182,0.8868421052631579,0.8869049404105116,1.0,0.9426470588235294,0.3727453931381828,0.8881578947368421,14.06598049999593
75,0.0003376343247444856,0.6603474198688161,0.9386363636363636,0.423741109433927,0.8868421052631579,0.8868270997058267,0.95,0.9397058823529412,0.37481187550645123,0.8881578947368421,14.091105999999854
76,0.0003309085295319264,0.6205070665749637,0.9560227272727273,0.42281012299813725,0.8697368421052631,0.8689308399879607,1.0,0.9235294117647059,0.3762827615988882,0.8868421052631579,14.083088100000168
77,0.0003241672016149815,0.6254831463640387,0.9532954545454545,0.4359021246433258,0.875,0.8741865407379098,1.0,0.9294117647058824,0.3793227741592809,0.8868421052631579,14.110806999997294
78,0.00031741378447004763,0.6290180693973194,0.9522727272727273,0.4456971021074998,0.8736842105263158,0.8743249533027792,0.975,0.9308823529411765,0.37911433075603684,0.8881578947368421,14.088117399995099
79,0.00031065172774871004,0.613831679170782,0.9552272727272727,0.39063993723768936,0.8921052631578947,0.8919213900656151,1.0,0.9411764705882353,0.3768978730628365,0.8855263157894737,14.089415000002191
80,0.00030388448551565744,0.5800119872526689,0.9756818181818182,0.38935719414761194,0.8842105263157894,0.8831401071522329,1.0,0.9397058823529412,0.3745229419909025,0.8881578947368421,14.088565799997014
81,0.0002971155144843426,0.5890617680549621,0.9652272727272727,0.45526612840200725,0.8657894736842106,0.8633921929546282,1.0,0.913235294117647,0.3717597362242247,0.8947368421052632,14.05910109999968
82,0.0002903482722512899,0.5597089662335136,0.9682954545454545,0.3832221988000368,0.8842105263157894,0.8837024483376471,1.0,0.9352941176470588,0.37078395579990586,0.8934210526315789,14.064533500000834
83,0.0002835862155299524,0.6199586363272234,0.9529545454545455,0.40614913074593795,0.8776315789473684,0.8775331058226264,1.0,0.9279411764705883,0.3695466690941861,0.8947368421052632,14.067086600000039
84,0.00027683279838501855,0.5805156556042758,0.9646590909090909,0.4232123933340374,0.8881578947368421,0.8880215229104639,1.0,0.9382352941176471,0.3682316438147896,0.8934210526315789,14.075877800001763
85,0.00027009147046807365,0.5754998343641108,0.9717045454545454,0.4159716154399671,0.881578947368421,0.8808817890590837,1.0,0.925,0.36798894875927973,0.8960526315789473,14.075132199999643
86,0.0002633656752555145,0.5889334776184776,0.961590909090909,0.4094798031606172,0.881578947368421,0.8809135640076295,1.0,0.9382352941176471,0.3687334167329889,0.8960526315789473,14.06810029999906
87,0.00025665884828961807,0.6084580984982577,0.9451136363636363,0.4096929448215585,0.8802631578947369,0.8800761091067637,0.975,0.9264705882352942,0.3700979132401316,0.8934210526315789,14.058972600003472
88,0.00024997441542366436,0.6027494057742032,0.9580681818181818,0.39898103506941546,0.8881578947368421,0.8881320612542428,1.0,0.9338235294117647,0.3693357778222937,0.8947368421052632,14.08356890000141
89,0.00024331579107200632,0.6469424575025385,0.9468181818181818,0.4229369304682079,0.8776315789473684,0.8770927425938817,1.0,0.9308823529411765,0.36988505344641837,0.8934210526315789,14.082369600000675
90,0.0002366863764659847,0.6104833431677384,0.9652272727272727,0.4364647113963177,0.8697368421052631,0.8694874144273893,1.0,0.9264705882352942,0.37182195657177974,0.8934210526315789,14.106408399995416
91,0.0002300895579165759,0.61579195802862,0.9636363636363636,0.4184863849690086,0.8776315789473684,0.8766777708544806,1.0,0.9352941176470588,0.37313425164473685,0.8934210526315789,14.072513499995694
92,0.0002235287050846607,0.5706580059094862,0.9646590909090909,0.42287943018110175,0.8802631578947369,0.8801593295624132,1.0,0.9220588235294118,0.3731865327609213,0.8894736842105263,14.090306100006273
93,0.00021700716925979942,0.6087235229665583,0.9626136363636364,0.3973220834606572,0.8855263157894737,0.8851050246129175,1.0,0.9411764705882353,0.3742528011924342,0.8868421052631579,14.082745500003512
94,0.00021052828164838913,0.6147867582061074,0.9471590909090909,0.41920318603515627,0.8763157894736842,0.876126598977484,1.0,0.9264705882352942,0.37314946965167395,0.8855263157894737,14.093698000004224
95,0.00020409535167208103,0.59686960068616,0.9581818181818181,0.39540357181900426,0.8868421052631579,0.886008545576292,1.0,0.9426470588235294,0.37439017076241343,0.8894736842105263,14.089896199999203
96,0.00019771166527732506,0.5817030694267966,0.9696590909090909,0.439456739237434,0.875,0.8743998005845823,1.0,0.9264705882352942,0.37409676062433345,0.8894736842105263,14.090576900001906
97,0.00019138048325690465,0.5581097167188471,0.9813636363636363,0.42983037013756603,0.8789473684210526,0.8792237216260563,1.0,0.9294117647058824,0.3741940551682522,0.8907894736842106,14.089417900002445
98,0.00018510503958432174,0.5984274888038635,0.9655681818181818,0.40126925048075224,0.881578947368421,0.8819619087817377,1.0,0.9352941176470588,0.3752344642814837,0.8934210526315789,14.087542699999176
99,0.0001788885397618797,0.5848099343343215,0.9688636363636364,0.40407879493738474,0.8868421052631579,0.886988865652303,1.0,0.9338235294117647,0.3747989450630389,0.8947368421052632,14.076231899998675
100,0.00017273415918330973,0.6043057352846319,0.9625,0.4011049367879566,0.8763157894736842,0.8764824988450922,1.0,0.9352941176470588,0.37651106119155886,0.8973684210526316,14.072126600003685
101,0.00016664504151177735,0.6104939744689247,0.9534090909090909,0.39352286520757174,0.8894736842105263,0.8891728792271287,1.0,0.9382352941176471,0.3782736931976519,0.8921052631578947,14.108136700000614
102,0.00016062429707409598,0.6000287348573858,0.9742045454545455,0.40021213763638547,0.8842105263157894,0.8840375235892468,1.0,0.9323529411764706,0.38060242502312913,0.8947368421052632,14.085035800002515
103,0.00015467500127196946,0.5565767700021917,0.977840909090909,0.42214668581360265,0.8736842105263158,0.8741199971994792,1.0,0.9294117647058824,0.3814527806482817,0.8960526315789473,14.065908800002944
104,0.0001488001930110739,0.5834749607606368,0.9702272727272727,0.4051924445127186,0.8828947368421053,0.8830940013423089,1.0,0.9352941176470588,0.38523615739847483,0.8934210526315789,14.096519600003376
105,0.00014300287314878202,0.616467653838071,0.9570454545454545,0.434239598638133,0.8697368421052631,0.8696007268989636,1.0,0.9220588235294118,0.3876246003728164,0.8960526315789473,14.080816000001505
106,0.00013728600296132235,0.6092567777633667,0.9554545454545454,0.4376889269602926,0.8671052631578947,0.8670532737441397,1.0,0.9147058823529411,0.38975717644942437,0.8934210526315789,14.105141299995012
107,0.00013165250263115694,0.5889388587258079,0.9706818181818182,0.4550533084492934,0.8697368421052631,0.8696834212666132,0.975,0.913235294117647,0.39224724926446614,0.8921052631578947,14.093710299996019
108,0.0001261052497553492,0.5725815769759092,0.9728409090909091,0.39399518401999223,0.8894736842105263,0.88948256218159,1.0,0.9397058823529412,0.3924419208576805,0.8894736842105263,14.095277199994598
109,0.0001206470778756849,0.6042823467471383,0.9617045454545454,0.4157861000613162,0.8842105263157894,0.8838785607970282,1.0,0.9397058823529412,0.3906238361408836,0.8894736842105263,14.084633899998153
110,0.0001152807750312964,0.5776717840541493,0.96875,0.45398989272745033,0.8671052631578947,0.8683414148868058,0.95,0.9147058823529411,0.3916988181440454,0.8894736842105263,14.121479800000088
111,0.00011000908233452982,0.605125297091224,0.9686363636363636,0.4189076880091115,0.8789473684210526,0.8793925396703492,1.0,0.9308823529411765,0.39168986333043954,0.8921052631578947,14.12042069999734
112,0.00010483469257078224,0.5664190845056014,0.9798863636363636,0.4370949593029524,0.8789473684210526,0.8792660348354019,0.975,0.9161764705882353,0.39161931025354485,0.8921052631578947,14.101627800002461
113,9.976024882302456e-05,0.6099430212107572,0.9501136363636363,0.4366443436396749,0.8855263157894737,0.8853534536383518,0.975,0.9191176470588235,0.39347168787529596,0.8881578947368421,14.073007400002098
114,9.478834312171236e-05,0.6043153819170866,0.9682954545454545,0.42836468298184244,0.881578947368421,0.8818270709941259,0.975,0.9264705882352942,0.39492352102932177,0.8881578947368421,14.07575010000437
115,8.992151512077429e-05,0.597552518086,0.9693181818181819,0.42875872207315346,0.8828947368421053,0.881890302689422,0.975,0.9220588235294118,0.3965128042195973,0.8881578947368421,14.073319100003573
116,8.516225080035476e-05,0.5833118367195129,0.97125,0.43226623566527117,0.8842105263157894,0.8832589308613373,0.975,0.9191176470588235,0.3989179915503452,0.8868421052631579,14.08235920000152
117,8.051298119697266e-05,0.5879129747910933,0.9659090909090909,0.40845694243907926,0.8789473684210526,0.8790238452660034,1.0,0.9367647058823529,0.4002188436294857,0.8894736842105263,14.124632200000633
118,7.597608116174637e-05,0.5921265433051369,0.9603409090909091,0.42849040752963014,0.8842105263157894,0.8840143899845898,0.975,0.9264705882352942,0.39978320488804264,0.8907894736842106,14.10458379999909
119,7.155386814731662e-05,0.578142400004647,0.9680681818181818,0.4153648776443381,0.8894736842105263,0.889003117187991,0.975,0.9352941176470588,0.4000191934798893,0.8881578947368421,14.097546299999522
120,6.724860102409081e-05,0.5949160809950395,0.9684090909090909,0.4179577079258467,0.8855263157894737,0.8855378183598267,1.0,0.9279411764705883,0.40042266798646825,0.8868421052631579,14.046041000001424
121,6.306247892640888e-05,0.5949816496805711,0.9721590909090909,0.4203202498586554,0.875,0.8743152182440266,1.0,0.9308823529411765,0.399590623065045,0.8881578947368421,14.091949800000293
122,5.899764012922409e-05,0.6039989739114588,0.9653409090909091,0.42068081937338175,0.8763157894736842,0.8757830760617841,1.0,0.9279411764705883,0.40156466804052654,0.8855263157894737,14.089013400000113
123,5.5056160955870474e-05,0.5768136637861079,0.9655681818181818,0.3997234149983055,0.8855263157894737,0.8849100869156683,1.0,0.9352941176470588,0.4019256193386881,0.8842105263157894,14.103540599993721
124,5.1240054717474066e-05,0.6084043527733196,0.9621590909090909,0.39619317321400893,0.8828947368421053,0.8827991433238493,1.0,0.9411764705882353,0.4000059025852304,0.8855263157894737,14.079390099999728
125,4.755127068455278e-05,0.5787763036381115,0.9669318181818182,0.4052405911056619,0.8881578947368421,0.8877613779033853,1.0,0.9382352941176471,0.3992787809748399,0.8868421052631579,14.061017400003038
126,4.399169309132677e-05,0.6079840509458022,0.9652272727272727,0.3968212731574711,0.8921052631578947,0.8917148287722627,0.975,0.9367647058823529,0.3985300964430759,0.8868421052631579,14.09144329999981
127,4.0563140173249585e-05,0.5811992618170652,0.9757954545454546,0.4158834763263401,0.875,0.8746365096965445,1.0,0.9323529411764706,0.3978071107676155,0.8868421052631579,14.072080000005371
128,3.726736323825278e-05,0.6277574081854387,0.9631818181818181,0.41760623329564145,0.8789473684210526,0.8794047315022663,1.0,0.925,0.3981073879881909,0.8894736842105263,14.078966000000946
129,3.41060457721751e-05,0.6180598772655834,0.9579545454545455,0.42420702498210106,0.8842105263157894,0.8845839418179601,1.0,0.9308823529411765,0.39892726666048955,0.8907894736842106,14.047063300000445
130,3.1080802578837415e-05,0.5781299377571453,0.9715909090909091,0.43152803072803897,0.8802631578947369,0.8805052937828772,1.0,0.9220588235294118,0.400516750938014,0.8881578947368421,14.071687199997541
131,2.8193178955198895e-05,0.5830457183447751,0.9725,0.40074531122257834,0.8894736842105263,0.889452008632533,1.0,0.9367647058823529,0.40044463261177665,0.8907894736842106,14.092719100000977
132,2.544464990201774e-05,0.5568063326315447,0.9734090909090909,0.42118120695415295,0.8776315789473684,0.8777718517218632,1.0,0.9308823529411765,0.40124266806401704,0.8921052631578947,14.164172299999336
133,2.283661937042025e-05,0.5940999150276184,0.9711363636363637,0.41895960788977776,0.8855263157894737,0.885337537988295,0.975,0.9352941176470588,0.4036000305100491,0.8907894736842106,14.15506699999969
134,2.0370419544760518e-05,0.6065885152600028,0.9554545454545454,0.42126123575787794,0.8855263157894737,0.8855982783087993,1.0,0.9264705882352942,0.40486638953811244,0.8881578947368421,14.117123999996693
135,1.804731016213988e-05,0.5835854598608884,0.9685227272727273,0.3996454745531082,0.8868421052631579,0.886622523119615,1.0,0.9382352941176471,0.4057600727206782,0.8881578947368421,14.075652899999113
136,1.5868477868931964e-05,0.5495053098418495,0.9830681818181818,0.400348783637348,0.8907894736842106,0.890639899389576,1.0,0.9397058823529412,0.4045879560081582,0.8907894736842106,14.121208299999125
137,1.3835035614642541e-05,0.5656895622340116,0.9821590909090909,0.4136067043793829,0.8868421052631579,0.8868958776220692,1.0,0.9338235294117647,0.40470279847320756,0.8907894736842106,14.0796726999979
138,1.1948022083414199e-05,0.5863170556588606,0.9690909090909091,0.3945418905270727,0.8921052631578947,0.8917212487116671,1.0,0.9397058823529412,0.405232961397422,0.8907894736842106,14.082925000002433
139,1.0208401163465185e-05,0.5939021480083465,0.9770454545454546,0.40948004424571993,0.8868421052631579,0.8865675005532554,1.0,0.9323529411764706,0.40543445740875445,0.8907894736842106,14.12470459999895
140,8.617061454734755e-06,0.5864217109029943,0.9677272727272728,0.4078182418095438,0.8842105263157894,0.8840466490582294,1.0,0.9338235294117647,0.406309428654219,0.8881578947368421,14.082295799998974
141,7.1748158149852224e-06,0.6105874388868159,0.9652272727272727,0.4185477008945064,0.8828947368421053,0.8829917525497478,1.0,0.9308823529411765,0.40755904395329323,0.8894736842105263,14.113630599997123
142,5.882400944593751e-06,0.5710787056792866,0.9776136363636364,0.40593699452124143,0.8868421052631579,0.8866698234309072,1.0,0.9323529411764706,0.40776451496701493,0.8881578947368421,14.071592499996768
143,4.740477010244959e-06,0.5649950742721558,0.9807954545454546,0.4207324377800289,0.8855263157894737,0.8855367068992225,0.975,0.9279411764705883,0.40720170720627435,0.8881578947368421,14.121041599995806
144,3.7496273077172435e-06,0.5799796355854381,0.9697727272727272,0.39809542235575224,0.8907894736842106,0.8906095303710261,1.0,0.9352941176470588,0.407078030234889,0.8881578947368421,14.090684899994812
145,2.9103579639347222e-06,0.6023383205587214,0.9673863636363637,0.4119345409305472,0.8855263157894737,0.885322051794901,1.0,0.9338235294117647,0.40706670707777926,0.8881578947368421,14.081346999999369
146,2.223097678437247e-06,0.5864562468095259,0.975909090909091,0.41238889160909153,0.8868421052631579,0.8868544111378306,1.0,0.9323529411764706,0.40695688332382,0.8881578947368421,14.079298100004962
147,1.6881975044002091e-06,0.6020670153877952,0.9720454545454545,0.4211074825964476,0.8842105263157894,0.8843058903225618,1.0,0.9294117647058824,0.4073197612636968,0.8868421052631579,14.089109799999278
148,1.3059306693162125e-06,0.6056900050423362,0.9680681818181818,0.4053728607140089,0.8855263157894737,0.8854909246885537,1.0,0.9338235294117647,0.4076783028088118,0.8868421052631579,14.081903300000704
149,1.0764924354303636e-06,0.5773241673816334,0.9670454545454545,0.4091864331772453,0.8842105263157894,0.8840852405443244,1.0,0.9338235294117647,0.40753262199853596,0.8868421052631579,14.098159399996803
150,1e-06,0.5893630511110479,0.97375,0.4162987558465255,0.8828947368421053,0.8828875404012152,0.975,0.9308823529411765,0.407564504366172,0.8868421052631579,14.077893499998027
