epoch,lr,train_loss,train_accuracy,val_loss,val_accuracy,val_macro_f1,val_trial_accuracy,val_k3,ema_loss,ema_accuracy,seconds
1,5.9999999999999995e-05,1.3325820129567927,0.50125,1.0501555781615408,0.5578947368421052,0.5469867224053375,0.8,0.625,1.6122018889376992,0.2,12.277555299999221
2,0.00011999999999999999,1.1348017796603116,0.6393181818181818,0.7771719493364033,0.6894736842105263,0.6725768351302795,0.8,0.7352941176470589,1.624383222429376,0.2,11.269375399999262
3,0.00018,1.0012730303677646,0.7440909090909091,0.6363377426799975,0.7697368421052632,0.7679841248570447,0.925,0.8529411764705882,1.6496993177815487,0.2,10.87119029999667
4,0.00023999999999999998,0.9000543481653387,0.7992045454545454,0.45248454150400663,0.8513157894736842,0.8513218774753242,1.0,0.9220588235294118,1.6946803030214812,0.2,10.869975099998555
5,0.0003,0.881814000823281,0.8084090909090909,0.498856961099725,0.8447368421052631,0.8435632590911311,1.0,0.9029411764705882,1.7726626709887856,0.2,10.719835799998691
6,0.00035999999999999997,0.8383720567009666,0.8372727272727273,0.4757063206873442,0.8355263157894737,0.8292546474778604,0.95,0.8941176470588236,1.8714252685245714,0.2,10.53395509999973
7,0.00042,0.8197579821673306,0.8381818181818181,0.46085948002965826,0.8394736842105263,0.8397020957890522,1.0,0.9102941176470588,2.0117174637945077,0.2,10.574952799997845
8,0.0004799999999999999,0.8338502047278664,0.8427272727272728,0.4096412668102666,0.8710526315789474,0.8694912191339412,1.0,0.9411764705882353,2.2070839342318083,0.2,10.617760899996938
9,0.00054,0.8098083240335638,0.8470454545454545,0.6395754964728104,0.7763157894736842,0.7634177833684457,0.875,0.8102941176470588,2.3907229787424993,0.2,10.550121300002502
10,0.0005999999999999998,0.8047577907822349,0.8543181818181819,0.40344358745374176,0.8776315789473684,0.8741700694829648,1.0,0.9382352941176471,2.513816435713517,0.2,10.558301900000515
11,0.0006,0.7683087589524009,0.8809090909090909,0.4365026169701626,0.8513157894736842,0.8505012627172046,1.0,0.9147058823529411,2.6426571519751296,0.2,10.5451968999987
12,0.0005999235075645696,0.773960754221136,0.8718181818181818,0.4784470420134695,0.8552631578947368,0.8484672489984794,1.0,0.9147058823529411,2.7827996511208384,0.2,10.527447600001324
13,0.0005996940693306837,0.7518267698721453,0.88625,0.4177064202333752,0.8552631578947368,0.8541053876938829,1.0,0.9191176470588235,2.9678685257309363,0.2,10.513036500000453
14,0.0005993118024955998,0.7477540027011524,0.8848863636363636,0.44456118533485817,0.8407894736842105,0.8405577039742044,1.0,0.9323529411764706,3.1154001336348682,0.2013157894736842,10.578615500002343
15,0.0005987769023215627,0.7413660675829107,0.8898863636363636,0.5391577861810986,0.8118421052631579,0.7994728699108723,0.9,0.8647058823529412,3.2472887547392593,0.2,10.531783400001586
16,0.0005980896420360653,0.6888458167422902,0.9136363636363637,0.4524325425687589,0.8486842105263158,0.8524583376205619,1.0,0.9102941176470588,3.3743896490649172,0.2,10.527287699998851
17,0.0005972503726922827,0.7262511431087147,0.8980681818181818,0.3930703611750352,0.8947368421052632,0.8952398912951083,1.0,0.9529411764705882,3.464213160464638,0.2,10.522385400003259
18,0.0005962595229897549,0.6896798118678006,0.9082954545454546,0.4801196261456138,0.8473684210526315,0.8446713543306277,1.0,0.8897058823529411,3.523839690810756,0.20526315789473684,10.562040600001637
19,0.0005951175990554061,0.7181325970996509,0.9013636363636364,0.40737907102233484,0.8921052631578947,0.8919175676054782,1.0,0.9514705882352941,3.5798796010644813,0.2013157894736842,10.539642600000661
20,0.0005938251841850148,0.7156176055561413,0.9098863636363637,0.4668322111430921,0.8447368421052631,0.8456774919389357,1.0,0.9176470588235294,3.5844989971110697,0.2013157894736842,10.534294500001124
21,0.0005923829385452652,0.7037517285346985,0.9047727272727273,0.5363557934761047,0.8302631578947368,0.8261674597749471,0.975,0.8970588235294118,3.570924457123405,0.2,10.532030600003054
22,0.0005907915988365347,0.7163091256401756,0.9054545454545454,0.3943934685305545,0.8789473684210526,0.8788398642031661,1.0,0.9485294117647058,3.5373511060288076,0.2,10.535318199999892
23,0.0005890519779165858,0.6794747039404783,0.92375,0.4096853146427556,0.8868421052631579,0.8864886136404921,1.0,0.9382352941176471,3.4777897888108305,0.21052631578947367,10.60672120000163
24,0.0005871649643853574,0.6526269648291848,0.9328409090909091,0.4654504076430672,0.8381578947368421,0.840849982313442,1.0,0.9117647058823529,3.416406571865082,0.21973684210526315,10.593103700000938
25,0.000585131522131068,0.6852855563163758,0.9240909090909091,0.5278225553663154,0.8368421052631579,0.836601271637323,1.0,0.8970588235294118,3.365521401794333,0.21710526315789475,10.548444300002302
26,0.0005829526898378601,0.6840719946947965,0.9239772727272727,0.41496710620428384,0.881578947368421,0.882360294137829,1.0,0.9529411764705882,3.3100601996246137,0.22236842105263158,10.531530000000203
27,0.0005806295804552395,0.6282559791478244,0.9418181818181818,0.4126627875001807,0.8592105263157894,0.8611585230749847,1.0,0.9205882352941176,3.215740002456464,0.25526315789473686,10.516638300003251
28,0.0005781633806295796,0.6973494830998508,0.9188636363636363,0.44141809563887746,0.8763157894736842,0.875830266717232,1.0,0.9352941176470588,3.086355429260354,0.3157894736842105,10.528076900001906
29,0.0005755553500979822,0.7088243887641213,0.9136363636363637,0.4572032915918451,0.8526315789473684,0.8505148163215235,1.0,0.9205882352941176,2.990483254821677,0.33421052631578946,10.537864300000365
30,0.0005728068210448012,0.6447020101547242,0.9336363636363636,0.3856415199606042,0.8657894736842106,0.8650849633581267,1.0,0.9470588235294117,2.8710500607365055,0.35,10.542102799998247
31,0.0005699191974211625,0.6980638696930626,0.920340909090909,0.49516003257349916,0.8328947368421052,0.8285640050478523,0.95,0.8955882352941177,2.690359096464358,0.3539473684210526,10.564790799999173
32,0.0005668939542278249,0.6621817721020091,0.9357954545454545,0.4908084270201231,0.8486842105263158,0.8483809523809522,1.0,0.913235294117647,2.4449125587940217,0.3605263157894737,10.578232300002128
33,0.0005637326367617472,0.6760234358093955,0.925,0.43830437879813344,0.8473684210526315,0.8476962828511132,1.0,0.9014705882352941,2.1110618199172775,0.37763157894736843,10.537550799999735
34,0.0005604368598267504,0.6339919558438388,0.9392045454545455,0.4367379439504523,0.8631578947368421,0.8626540840479624,1.0,0.9235294117647059,1.7828687159638656,0.4263157894736842,10.5235623999979
35,0.0005570083069086733,0.6210620988499035,0.9452272727272727,0.4762332797050476,0.843421052631579,0.8383964838874369,1.0,0.9279411764705883,1.5171629253186678,0.4710526315789474,10.527273399999103
36,0.0005534487293154471,0.6380864867297086,0.9346590909090909,0.4052815082826112,0.8723684210526316,0.873187350394028,1.0,0.9485294117647058,1.3110635862538689,0.5421052631578948,10.553502200000366
37,0.0005497599452825259,0.6432496257261796,0.9426136363636364,0.43546026129471627,0.8697368421052631,0.8683721913981952,1.0,0.9441176470588235,1.1485295341203088,0.5855263157894737,10.534216500000184
38,0.0005459438390441295,0.6442564678192139,0.9345454545454546,0.4724659979343414,0.8473684210526315,0.8492021113023249,1.0,0.9088235294117647,1.018771763381205,0.631578947368421,10.512149300000601
39,0.0005420023598707758,0.6800949085842479,0.9248863636363637,0.4647305943463978,0.8592105263157894,0.8604195419830585,1.0,0.9352941176470588,0.8881389815556375,0.6736842105263158,10.565189900000405
40,0.0005379375210735911,0.6650030469894409,0.9342045454545455,0.4123702494721664,0.8671052631578947,0.8669932879522442,1.0,0.9470588235294117,0.7885702431201935,0.7157894736842105,10.50126839999939
41,0.0005337513989759092,0.6549513461373069,0.9334090909090909,0.43607587312397206,0.8671052631578947,0.8676694894828836,1.0,0.9411764705882353,0.7125377057414306,0.7460526315789474,10.503157099999953
42,0.0005294461318526833,0.6312766014445912,0.9461363636363637,0.4413974559620807,0.8565789473684211,0.8569304541264848,1.0,0.9220588235294118,0.6540401261103781,0.7657894736842106,10.52736029999869
43,0.0005250239188382536,0.6696463643420826,0.9368181818181818,0.4335963995833146,0.8763157894736842,0.8773777048663014,1.0,0.9426470588235294,0.6056375608632439,0.7828947368421053,10.498902900002577
44,0.0005204870188030272,0.6386344021016901,0.9421590909090909,0.3756740378706079,0.8921052631578947,0.8922724278546241,1.0,0.9676470588235294,0.56762807761368,0.8013157894736842,10.537254300001223
45,0.0005158377491996452,0.6469244345751676,0.9436363636363636,0.44147997467141403,0.8578947368421053,0.859166722456885,1.0,0.9279411764705883,0.5299991005345395,0.8171052631578948,10.53263169999991
46,0.0005110784848792257,0.6082350178198381,0.9539772727272727,0.4817589207699424,0.8302631578947368,0.8346095165755487,1.0,0.8985294117647059,0.49796086361533715,0.8289473684210527,10.566643699999986
47,0.0005062116568782877,0.6573109178109603,0.9507954545454546,0.49180611152397957,0.8513157894736842,0.8528303746835808,1.0,0.9102941176470588,0.47339180347166565,0.8407894736842105,10.490847099998064
48,0.0005012397511769754,0.6396655230088667,0.9420454545454545,0.4138594781097613,0.868421052631579,0.8687657653861613,1.0,0.9455882352941176,0.45438678201876187,0.85,10.542181300002994
49,0.0004961653074292177,0.6467349407889627,0.9448863636363637,0.4417998458209791,0.8618421052631579,0.8630731165948557,1.0,0.9441176470588235,0.442678070382068,0.8552631578947368,10.511846699999296
50,0.0004909909176654702,0.6147308499162847,0.9509090909090909,0.4734281235619595,0.8447368421052631,0.8439356621777241,1.0,0.9161764705882353,0.43391294040177997,0.8565789473684211,10.508746499999688
51,0.00048571922496870357,0.6193402481079101,0.9514772727272728,0.4707264153580917,0.8618421052631579,0.8621573262280713,1.0,0.9220588235294118,0.4242917515729603,0.8644736842105263,10.557430700002442
52,0.00048035292212431514,0.6344407528096979,0.94625,0.5268629381531164,0.8302631578947368,0.8298297486911279,1.0,0.9029411764705882,0.4192777937964389,0.868421052631579,10.544053300000087
53,0.0004748947502446508,0.631762417012995,0.9415909090909091,0.4736289576480263,0.8447368421052631,0.8441259748559282,1.0,0.9264705882352942,0.41716874712391905,0.8710526315789474,10.491560200000094
54,0.00046934749736884306,0.6116587942296808,0.9529545454545455,0.4064731793968301,0.8973684210526316,0.89793904053263,1.0,0.9558823529411765,0.41106322376351606,0.8723684210526316,10.53581000000122
55,0.0004637139970386777,0.6181892741810192,0.9471590909090909,0.4648136345963729,0.8460526315789474,0.8457892535126158,1.0,0.9220588235294118,0.408482080070596,0.8671052631578947,10.524398400000791
56,0.000457997126851218,0.6673140261389993,0.9427272727272727,0.4663093962167439,0.8565789473684211,0.8574243964178019,1.0,0.9102941176470588,0.4085894142326556,0.868421052631579,10.583522999997513
57,0.00045219980698892607,0.615849443023855,0.9460227272727273,0.4079891800880432,0.8697368421052631,0.8702789874635808,1.0,0.9426470588235294,0.405706788050501,0.8723684210526316,10.524369700000534
58,0.0004463249987280305,0.6091502732580358,0.9595454545454546,0.5418320909926766,0.8171052631578948,0.8175146533385187,1.0,0.888235294117647,0.40205768723236884,0.8723684210526316,10.526997900000424
59,0.000440375702925904,0.6015747657689181,0.955,0.43479646193353755,0.8802631578947369,0.8796188456894137,1.0,0.9294117647058824,0.3995733957541616,0.8710526315789474,10.516450600000098
60,0.0004343549584882226,0.6208145009387623,0.9477272727272728,0.43865565124310946,0.8631578947368421,0.8631207596475011,1.0,0.95,0.39770596090116,0.8723684210526316,10.581317700001819
61,0.00042826584081669025,0.6379770369963212,0.9426136363636364,0.4562810791166205,0.8552631578947368,0.8563490624838408,1.0,0.9088235294117647,0.39679790264681764,0.8710526315789474,10.522277199997916
62,0.00042211146023812037,0.6187192851846869,0.9510227272727273,0.43877659753749243,0.8736842105263158,0.8735513795696574,1.0,0.9323529411764706,0.3969971499944988,0.875,10.54323099999965
63,0.0004158949604156783,0.6643833735856143,0.9436363636363636,0.44478286002811634,0.8552631578947368,0.85495820358106,1.0,0.9279411764705883,0.39905885395250823,0.875,10.564531799998804
64,0.0004096195167430953,0.5994600957090205,0.9632954545454545,0.4295785191812013,0.8763157894736842,0.8761090362223329,1.0,0.9367647058823529,0.39882908839928477,0.8776315789473684,10.559854900002392
65,0.0004032883347226749,0.6096676633574746,0.9578409090909091,0.42320889956072755,0.8723684210526316,0.8719567409597353,1.0,0.9426470588235294,0.39771760670762313,0.8776315789473684,10.555740499999956
66,0.0003969046483279189,0.6139912757006558,0.9507954545454546,0.483569094695543,0.8578947368421053,0.8559918687328499,1.0,0.9220588235294118,0.3988898029452876,0.8789473684210526,10.48601730000155
67,0.0003904717183516109,0.6552014100551605,0.9460227272727273,0.5047421897712506,0.8473684210526315,0.8482611895871075,1.0,0.9044117647058824,0.3955955103824013,0.8763157894736842,10.508682699997735
68,0.0003839928307402005,0.5618208631602201,0.9732954545454545,0.41442268835870844,0.8789473684210526,0.8781620443831457,1.0,0.9411764705882353,0.3957712283259944,0.8723684210526316,10.61113469999691
69,0.00037747129491533916,0.5794239253347571,0.9647727272727272,0.44768757004486887,0.8671052631578947,0.8667097052594768,1.0,0.9279411764705883,0.3982992068717354,0.875,10.585965899997973
70,0.0003709104420834241,0.5876056920398366,0.96875,0.5085197853414636,0.8328947368421052,0.8341787969193548,1.0,0.9029411764705882,0.4006344453284615,0.8763157894736842,10.619003600000724
71,0.00036431362353401533,0.6064597355235707,0.9536363636363636,0.43280647679379114,0.8644736842105263,0.8651981746051758,1.0,0.9308823529411765,0.4032028998199262,0.8697368421052631,10.533718800001225
72,0.0003576842089279937,0.6204388617385518,0.9511363636363637,0.4554338966545306,0.8671052631578947,0.8667136163558185,1.0,0.9455882352941176,0.40438328699061743,0.8736842105263158,10.532783700000437
73,0.0003510255845763356,0.6114589719338851,0.9557954545454546,0.49269734401451915,0.8421052631578947,0.8425406134222759,1.0,0.9088235294117647,0.4067097717209866,0.8710526315789474,10.59594460000153
74,0.0003443411517103819,0.6052190429514105,0.9646590909090909,0.5505491559442721,0.8184210526315789,0.8199107226423974,0.975,0.875,0.4060227246660935,0.8723684210526316,10.567939799999294
75,0.0003376343247444856,0.6307750925150785,0.9532954545454545,0.462278266643223,0.8710526315789474,0.8714869303470758,1.0,0.9264705882352942,0.4087173471325322,0.8710526315789474,10.517671800000244
76,0.0003309085295319264,0.5919075328653509,0.9556818181818182,0.4540244660879436,0.8605263157894737,0.8612820920681774,1.0,0.9367647058823529,0.4103155032584542,0.8723684210526316,10.534403500001645
77,0.0003241672016149815,0.597749997919256,0.9645454545454546,0.4218544407894737,0.8776315789473684,0.8780199335392634,1.0,0.9352941176470588,0.4118847489356995,0.8736842105263158,10.530855200002406
78,0.00031741378447004763,0.6159711681712757,0.9561363636363637,0.46698339330522637,0.8631578947368421,0.8633314319889142,1.0,0.9264705882352942,0.41318536149828056,0.8736842105263158,10.538328599999659
79,0.00031065172774871004,0.5906112691489133,0.9740909090909091,0.49342731582491023,0.8394736842105263,0.8377644057797644,1.0,0.9,0.41456106148268046,0.8763157894736842,10.553644900002837
80,0.00030388448551565744,0.5830263628742912,0.9629545454545455,0.4459420044171183,0.8578947368421053,0.8573977677927573,1.0,0.9264705882352942,0.41376969249624956,0.8763157894736842,10.599375299996609
81,0.0002971155144843426,0.6415270124782215,0.9461363636363637,0.4760580756162342,0.8697368421052631,0.8709521819798761,1.0,0.9514705882352941,0.41598358060184276,0.8776315789473684,10.513951900000393
82,0.0002903482722512899,0.5918172729015351,0.9659090909090909,0.42471747241522134,0.8776315789473684,0.8784417357631016,1.0,0.9338235294117647,0.4166235672800164,0.8789473684210526,10.52702059999865
83,0.0002835862155299524,0.5762676034190438,0.9703409090909091,0.4369036216484873,0.8631578947368421,0.8630150846694843,1.0,0.9279411764705883,0.4165720892579932,0.8789473684210526,10.528401999999915
84,0.00027683279838501855,0.56770113771612,0.9748863636363636,0.39388584306365565,0.8789473684210526,0.87912989789356,1.0,0.9470588235294117,0.4150160933795728,0.8789473684210526,10.560521700001118
85,0.00027009147046807365,0.5818968592990529,0.9670454545454545,0.48444486981944035,0.8513157894736842,0.8531173844818083,1.0,0.913235294117647,0.4146325359218999,0.875,10.566486399999121
86,0.0002633656752555145,0.5818949012322859,0.9665909090909091,0.49849002173072415,0.8473684210526315,0.8479059898259387,1.0,0.9117647058823529,0.4133798702767021,0.8789473684210526,10.54091409999819
87,0.00025665884828961807,0.6189597324891524,0.9592045454545455,0.4331840926095059,0.8802631578947369,0.8808790903140977,1.0,0.9397058823529412,0.41475308035549363,0.8802631578947369,10.46456119999857
88,0.00024997441542366436,0.6150276177579707,0.9581818181818181,0.4935022445101487,0.85,0.8506983255043579,1.0,0.9191176470588235,0.4139244471725665,0.8789473684210526,10.550101799999538
89,0.00024331579107200632,0.6177504422447898,0.9594318181818182,0.4889429195931083,0.8447368421052631,0.8460289280563122,1.0,0.9058823529411765,0.4154731348941201,0.8855263157894737,10.542219599999953
90,0.0002366863764659847,0.5947526474432512,0.9660227272727273,0.4983718078387411,0.8421052631578947,0.8393019379171855,0.975,0.9029411764705882,0.41828067239962125,0.881578947368421,10.52303629999733
91,0.0002300895579165759,0.5657675619558854,0.9692045454545455,0.48660503186677634,0.85,0.851648114339102,1.0,0.9117647058823529,0.42062241340938367,0.8776315789473684,10.559487499998795
92,0.0002235287050846607,0.6002592483433811,0.9692045454545455,0.4706738122199711,0.8526315789473684,0.8534350274462714,1.0,0.913235294117647,0.42166402685014825,0.8789473684210526,10.559891400000197
93,0.00021700716925979942,0.58270042441108,0.9651136363636363,0.444643162112487,0.8723684210526316,0.8722362229980405,1.0,0.9411764705882353,0.42196125325403716,0.8789473684210526,10.479722299998684
94,0.00021052828164838913,0.5748201771215959,0.9757954545454546,0.4558262868931419,0.8631578947368421,0.8626993671420891,1.0,0.9397058823529412,0.4232478097865456,0.8802631578947369,10.573657099997945
95,0.00020409535167208103,0.5763716784390536,0.9739772727272727,0.4551667056585613,0.8578947368421053,0.8574570302964399,1.0,0.925,0.4231153792456577,0.8802631578947369,10.535368899996683
96,0.00019771166527732506,0.610211716890335,0.9611363636363637,0.5040263124202428,0.8578947368421053,0.8581219846376914,1.0,0.9176470588235294,0.4244483552480999,0.8789473684210526,10.55031819999931
97,0.00019138048325690465,0.6292318153381348,0.9488636363636364,0.46773665547370913,0.8605263157894737,0.8614412324447777,1.0,0.9220588235294118,0.4259095853880832,0.8776315789473684,10.503601700002037
98,0.00018510503958432174,0.6346669884161515,0.9484090909090909,0.4535465431840796,0.8710526315789474,0.8710129903293902,1.0,0.9367647058823529,0.43008736058285363,0.8776315789473684,10.549408100003347
99,0.0001788885397618797,0.5870116714997725,0.9603409090909091,0.43715571353310034,0.8671052631578947,0.8668672121990928,1.0,0.9455882352941176,0.4298240269485273,0.8763157894736842,10.536463899999944
100,0.00017273415918330973,0.6064077455347234,0.9586363636363636,0.48031841108673495,0.8526315789473684,0.8523243612746562,1.0,0.9161764705882353,0.42976042157725286,0.8763157894736842,10.50721639999756
101,0.00016664504151177735,0.5752317064458674,0.97125,0.46219867875701504,0.8592105263157894,0.8596420011383147,1.0,0.9294117647058824,0.43071819073275514,0.8723684210526316,10.562989400001243
102,0.00016062429707409598,0.6131869162212719,0.9506818181818182,0.41215495027993854,0.8802631578947369,0.8802346107535961,1.0,0.9514705882352941,0.43038048932426853,0.875,10.511197899999388
103,0.00015467500127196946,0.588342434276234,0.9673863636363637,0.46183190533989354,0.85,0.850832552146646,1.0,0.9220588235294118,0.43035752083125867,0.8710526315789474,10.542822799998248
104,0.0001488001930110739,0.5762995857542211,0.9690909090909091,0.5028736324686753,0.8407894736842105,0.8397985892797906,0.975,0.8970588235294118,0.4342826451125898,0.8723684210526316,10.57673960000102
105,0.00014300287314878202,0.6064507959105752,0.9632954545454545,0.4797009922956165,0.8539473684210527,0.8541527689068673,1.0,0.9,0.4364009650130021,0.8736842105263158,10.546630499997264
106,0.00013728600296132235,0.5934882439266551,0.9631818181818181,0.469845901821789,0.8578947368421053,0.8590731414296873,1.0,0.9220588235294118,0.4358897152699922,0.8736842105263158,10.518738499999017
107,0.00013165250263115694,0.6135133507034995,0.9626136363636364,0.41998628409285294,0.8828947368421053,0.8830548731448365,1.0,0.9426470588235294,0.4343907412729765,0.875,10.540298199997778
108,0.0001261052497553492,0.567165743004192,0.9720454545454545,0.44039579661268935,0.8697368421052631,0.8696518000037636,1.0,0.9294117647058824,0.4335796146016372,0.8776315789473684,10.57464439999967
109,0.0001206470778756849,0.6050024929913608,0.9664772727272727,0.4723333255240792,0.8710526315789474,0.8717674326187955,1.0,0.9279411764705883,0.4340719916318592,0.8763157894736842,10.560390699996788
110,0.0001152807750312964,0.5825603569637645,0.9709090909090909,0.43632595695947346,0.8894736842105263,0.8905390890001617,1.0,0.9558823529411765,0.43301479847807633,0.8789473684210526,10.66834270000254
111,0.00011000908233452982,0.5711920384927229,0.9713636363636363,0.4353461808279941,0.8671052631578947,0.86786326696331,1.0,0.9367647058823529,0.43256201399000066,0.8776315789473684,10.562643199999002
112,0.00010483469257078224,0.5933012076941403,0.96625,0.466069190909988,0.8657894736842106,0.8673528257791882,1.0,0.9205882352941176,0.4320110123408468,0.8763157894736842,10.535540900000342
113,9.976024882302456e-05,0.5926931821216237,0.9693181818181819,0.4517140435545068,0.8631578947368421,0.8636073162581945,1.0,0.9308823529411765,0.4319530280012833,0.8763157894736842,10.555317400001513
114,9.478834312171236e-05,0.5805128583041105,0.9693181818181819,0.4653505824114147,0.8605263157894737,0.8620210796403814,1.0,0.9235294117647059,0.4307878202513645,0.8763157894736842,10.55142330000308
115,8.992151512077429e-05,0.5914394701610912,0.9721590909090909,0.4592954143097526,0.8671052631578947,0.8668809960143402,1.0,0.9338235294117647,0.43267444811369243,0.875,10.585944200000085
116,8.516225080035476e-05,0.5871989790959792,0.9739772727272727,0.4464593987715872,0.868421052631579,0.8686187204425977,1.0,0.9323529411764706,0.43463118703741777,0.8723684210526316,10.569279499999539
117,8.051298119697266e-05,0.6128183919733221,0.9552272727272727,0.46332979688518927,0.8592105263157894,0.8602838297950628,1.0,0.9205882352941176,0.4380148636667352,0.8710526315789474,10.54441560000123
118,7.597608116174637e-05,0.6226497257839549,0.9582954545454545,0.4502418919613487,0.8578947368421053,0.8582819806367693,1.0,0.9294117647058824,0.43985443052492645,0.8723684210526316,10.579389599999558
119,7.155386814731662e-05,0.5777477127855475,0.9710227272727273,0.46941568459335126,0.8631578947368421,0.8631515839639015,1.0,0.9279411764705883,0.43933796035616024,0.8723684210526316,10.569708200000605
120,6.724860102409081e-05,0.6213378447836095,0.9640909090909091,0.4408486617238898,0.8763157894736842,0.8765961842642822,1.0,0.9411764705882353,0.43859244930116753,0.875,10.552808399999776
121,6.306247892640888e-05,0.5865803164785559,0.9729545454545454,0.46787013050756954,0.8539473684210527,0.8538563005720141,1.0,0.9294117647058824,0.4381941952203449,0.875,10.54090019999785
122,5.899764012922409e-05,0.5682682821967385,0.9720454545454545,0.4598165408561104,0.8657894736842106,0.8661706069365657,1.0,0.9220588235294118,0.43874519812433344,0.8736842105263158,10.561194300000352
123,5.5056160955870474e-05,0.5519318009506572,0.9821590909090909,0.45469264011634025,0.8631578947368421,0.8633102854900443,1.0,0.9235294117647059,0.43929877045907473,0.8671052631578947,10.51926999999705
124,5.1240054717474066e-05,0.5673257480968129,0.9768181818181818,0.44409669527882023,0.8618421052631579,0.8624485002773824,1.0,0.9279411764705883,0.43918063499425586,0.868421052631579,10.554867299997568
125,4.755127068455278e-05,0.614272820299322,0.9590909090909091,0.4609064199422535,0.8644736842105263,0.8650126644712797,1.0,0.9264705882352942,0.4391372685369692,0.868421052631579,10.538333600001351
126,4.399169309132677e-05,0.5909601550752467,0.9675,0.4521200889035275,0.8605263157894737,0.8598920966148664,1.0,0.9220588235294118,0.4410044613637422,0.8644736842105263,10.484255800001847
127,4.0563140173249585e-05,0.5559126597101038,0.98125,0.49959580317923896,0.8460526315789474,0.8458045605704541,1.0,0.9,0.4420079290866852,0.8631578947368421,10.5065168000001
128,3.726736323825278e-05,0.548897775736722,0.975,0.4477323836401889,0.8631578947368421,0.8632782993147383,1.0,0.925,0.4440742898928492,0.8631578947368421,10.539926899997226
129,3.41060457721751e-05,0.575921276699413,0.9709090909090909,0.46378511064930966,0.8578947368421053,0.8582631623224177,1.0,0.9161764705882353,0.4439493285982232,0.8618421052631579,10.513098399998853
130,3.1080802578837415e-05,0.556441133997657,0.9813636363636363,0.472062843253738,0.8565789473684211,0.8564522829955099,1.0,0.9191176470588235,0.4451908313914349,0.8631578947368421,10.56752200000119
131,2.8193178955198895e-05,0.5628768225149675,0.9781818181818182,0.46690416806622553,0.8631578947368421,0.8632561550220528,1.0,0.9220588235294118,0.4468240033639105,0.8631578947368421,10.516970399999991
132,2.544464990201774e-05,0.6152674203569238,0.9625,0.48298918040175187,0.85,0.8505990439484812,1.0,0.9147058823529411,0.4492487852510653,0.8618421052631579,10.524051699998381
133,2.283661937042025e-05,0.5929585231434216,0.9782954545454545,0.4598507529810855,0.8631578947368421,0.864053917072493,1.0,0.9205882352941176,0.4509597776751769,0.8618421052631579,10.528691899999103
134,2.0370419544760518e-05,0.5735355990583246,0.97375,0.44117423641054254,0.8710526315789474,0.8715846735431342,1.0,0.9426470588235294,0.45174424052238465,0.8618421052631579,10.531719199996587
135,1.804731016213988e-05,0.5982034410129894,0.9694318181818182,0.4703031041120228,0.8618421052631579,0.8624533433298891,1.0,0.9220588235294118,0.45146130997883643,0.8592105263157894,10.546461800000543
136,1.5868477868931964e-05,0.5880268562923778,0.9694318181818182,0.45837129385847797,0.8578947368421053,0.8589105817947662,1.0,0.9279411764705883,0.452658884305703,0.8592105263157894,10.505409100001998
137,1.3835035614642541e-05,0.5801102791049264,0.9693181818181819,0.45702611035422275,0.8657894736842106,0.8664760308491208,1.0,0.9264705882352942,0.45287861055449435,0.8618421052631579,10.574335799999972
138,1.1948022083414199e-05,0.6043960415233265,0.9710227272727273,0.4750786222909626,0.8671052631578947,0.8687610922608592,1.0,0.925,0.45236768189229465,0.8618421052631579,10.511057100000471
139,1.0208401163465185e-05,0.6048253518884832,0.9604545454545454,0.456766308608808,0.8644736842105263,0.8645418536480204,1.0,0.9308823529411765,0.45267261752956794,0.8618421052631579,10.555887299997266
140,8.617061454734755e-06,0.5796325663003055,0.9705681818181818,0.47521611263877467,0.8552631578947368,0.8558911870026378,1.0,0.9176470588235294,0.45272369400451057,0.8618421052631579,10.497650500001328
141,7.1748158149852224e-06,0.5832482992519031,0.9685227272727273,0.4685451302089189,0.8552631578947368,0.8559920387558704,1.0,0.9220588235294118,0.4537562315401278,0.8618421052631579,10.537260899996909
142,5.882400944593751e-06,0.580803852298043,0.96875,0.43894179463386535,0.8710526315789474,0.8714779451979966,1.0,0.9382352941176471,0.4539954728201816,0.8618421052631579,10.527705600001354
143,4.740477010244959e-06,0.6071253154494546,0.9634090909090909,0.46360208580368445,0.8552631578947368,0.8555338459746749,1.0,0.9191176470588235,0.45429028931416965,0.8605263157894737,10.57371989999956
144,3.7496273077172435e-06,0.5764053221182389,0.9719318181818182,0.46556500855245087,0.8592105263157894,0.8596335149090685,1.0,0.9220588235294118,0.4546981814660524,0.8605263157894737,10.514932699999918
145,2.9103579639347222e-06,0.5435207558761943,0.9798863636363636,0.4479843138079894,0.8605263157894737,0.8612074928053068,1.0,0.9264705882352942,0.45482153657235597,0.8592105263157894,10.531716599998617
146,2.223097678437247e-06,0.5702157697894357,0.9781818181818182,0.4570443410622446,0.8565789473684211,0.8569356075942901,1.0,0.9220588235294118,0.4548205725456539,0.8592105263157894,10.55335450000348
147,1.6881975044002091e-06,0.5832371282577514,0.9642045454545455,0.44560771772735996,0.8644736842105263,0.8650381849771124,1.0,0.9279411764705883,0.4554054657095357,0.8592105263157894,10.57662419999906
148,1.3059306693162125e-06,0.5712805273316123,0.9773863636363637,0.4676001300937251,0.8592105263157894,0.8604017201079591,1.0,0.9161764705882353,0.4550019113641036,0.8592105263157894,10.497677699997439
149,1.0764924354303636e-06,0.573451343124563,0.9771590909090909,0.4527379095554352,0.8605263157894737,0.8607458143936733,1.0,0.9279411764705883,0.45514486243850305,0.8592105263157894,10.558325100002548
150,1e-06,0.5832870123603128,0.9679545454545454,0.45638098465768917,0.8657894736842106,0.8665834630979807,1.0,0.9235294117647059,0.45508760119739333,0.8592105263157894,10.498081600002479
