epoch,lr,train_loss,train_accuracy,val_loss,val_accuracy,val_macro_f1,val_trial_accuracy,val_k3,ema_loss,ema_accuracy,seconds
1,5.9999999999999995e-05,1.3461831699718128,0.49329545454545454,0.9387299625497115,0.6421052631578947,0.6345573869713708,0.85,0.7058823529411765,1.6100149029179622,0.2026315789473684,11.630666299999575
2,0.00011999999999999999,1.1585501969944347,0.6290909090909091,0.6225620846999319,0.7868421052631579,0.7804321175940625,0.975,0.8529411764705882,1.6162366340034886,0.2,11.532754899999418
3,0.00018,0.9895705569874157,0.7404545454545455,0.5439699480408117,0.8,0.794286165111646,0.975,0.8470588235294118,1.6264198667124699,0.2,11.514140799998131
4,0.00023999999999999998,0.9251025280085476,0.7871590909090909,0.4875240915700009,0.8460526315789474,0.8459802563501878,0.975,0.8867647058823529,1.6508210872348985,0.2,11.473027600000933
5,0.0003,0.8766985871575096,0.8105681818181818,0.39923206599135147,0.8605263157894737,0.8609382233477044,1.0,0.9308823529411765,1.708258379133124,0.2,11.552675000002637
6,0.00035999999999999997,0.8600421270457181,0.8203409090909091,0.3902453180990721,0.8921052631578947,0.8923583284294467,1.0,0.9455882352941176,1.8022794987026014,0.2,11.569619499998225
7,0.00042,0.8483959683504971,0.8344318181818182,0.4230993352438274,0.8473684210526315,0.8439708930597541,1.0,0.9176470588235294,1.9240343595805922,0.23684210526315788,11.549810099997558
8,0.0004799999999999999,0.8253869271278381,0.8459090909090909,0.38379187395698144,0.8973684210526316,0.8970202813319437,1.0,0.9588235294117647,2.0861700766964963,0.2,18.46561060000022
9,0.00054,0.8462824019518765,0.8318181818181818,0.3599182034793653,0.8947368421052632,0.8947840010127969,1.0,0.95,2.2497256630345395,0.2,11.588484799998696
10,0.0005999999999999998,0.8212309659611096,0.8446590909090909,0.4637249199967635,0.8644736842105263,0.8613299862984102,0.975,0.9058823529411765,2.4437522486636514,0.2,11.57236379999813
11,0.0006,0.825590199990706,0.8521590909090909,0.431119536098681,0.8526315789473684,0.8499522707055235,1.0,0.9044117647058824,2.639690840244293,0.2,11.577973600000405
12,0.0005999235075645696,0.7864878359707919,0.8663636363636363,0.40445524548229417,0.8828947368421053,0.8824676301757524,1.0,0.9382352941176471,2.948675376647397,0.2,11.849642400000448
13,0.0005996940693306837,0.7666055943749168,0.8798863636363636,0.3695343428536465,0.8802631578947369,0.8798615893850175,1.0,0.9411764705882353,3.232472951631797,0.2,11.881476400001702
14,0.0005993118024955998,0.7660647426952015,0.8793181818181818,0.3567198311027728,0.9078947368421053,0.9076830420115654,1.0,0.9514705882352941,3.468743816331813,0.2,11.75801649999994
15,0.0005987769023215627,0.7332880182699724,0.8947727272727273,0.4646969042326275,0.8592105263157894,0.856307168577124,0.95,0.9044117647058824,3.6839206897114454,0.2,11.74855679999746
16,0.0005980896420360653,0.7281791762872176,0.8896590909090909,0.35756528628499884,0.8828947368421053,0.8825749135863479,1.0,0.9264705882352942,3.817337035975958,0.2,11.765400000000227
17,0.0005972503726922827,0.7430783629417419,0.8827272727272727,0.4413317642713848,0.8802631578947369,0.8804420621794451,1.0,0.9294117647058824,3.9703965439216087,0.2,11.99639450000177
18,0.0005962595229897549,0.725401797728105,0.9044318181818182,0.39328834257627787,0.8828947368421053,0.8823912175754046,1.0,0.9308823529411765,3.957224233644573,0.2,11.554782399998658
19,0.0005951175990554061,0.7601768255233765,0.8818181818181818,0.3977172045331252,0.8671052631578947,0.867501197868541,1.0,0.9235294117647059,3.950906693307977,0.2,11.175342700000328
20,0.0005938251841850148,0.6852547589215365,0.9186363636363636,0.4441517898910924,0.8736842105263158,0.8738572602613157,1.0,0.925,3.9157682317260063,0.2,11.134579699999449
21,0.0005923829385452652,0.7072367442737926,0.913409090909091,0.4587003400451259,0.8394736842105263,0.8382596680113276,1.0,0.9,3.8085800570876973,0.2013157894736842,11.76248200000191
22,0.0005907915988365347,0.6914381111751903,0.9231818181818182,0.4493060275128013,0.8460526315789474,0.839500270724316,0.975,0.8955882352941177,3.582862894315469,0.20394736842105263,11.676496600000974
23,0.0005890519779165858,0.6870242016965693,0.9176136363636364,0.40957926825473184,0.8671052631578947,0.8659373699144097,1.0,0.9323529411764706,3.242096990974326,0.23026315789473684,11.69756150000103
24,0.0005871649643853574,0.6755330165949734,0.9228409090909091,0.3943880579973522,0.8736842105263158,0.8734808371803611,1.0,0.9235294117647059,3.1577839092204445,0.2736842105263158,11.766718999999284
25,0.000585131522131068,0.6995459888198159,0.913409090909091,0.4277754137390538,0.8723684210526316,0.8702929746577335,1.0,0.9279411764705883,3.09631966070125,0.2868421052631579,11.763052099999186
26,0.0005829526898378601,0.678744566007094,0.9265909090909091,0.4882978737354279,0.8328947368421052,0.8287273662869629,1.0,0.8838235294117647,2.9337763745533794,0.3131578947368421,11.58984000000055
27,0.0005806295804552395,0.6669308103214611,0.9140909090909091,0.4197247555381373,0.8657894736842106,0.8661802981251945,1.0,0.9147058823529411,2.854096582688783,0.31842105263157894,11.322652499999094
28,0.0005781633806295796,0.6308317529071461,0.9457954545454546,0.4520152044923682,0.8473684210526315,0.8500465245595826,1.0,0.9117647058823529,2.7308064918769035,0.33026315789473687,11.624548300002061
29,0.0005755553500979822,0.6857571068677035,0.9245454545454546,0.5304131755703374,0.825,0.8257443845663882,1.0,0.8867647058823529,2.5041313180797977,0.34078947368421053,11.720475699999952
30,0.0005728068210448012,0.6496197531440041,0.9251136363636364,0.3649602400629144,0.8973684210526316,0.8968038440866065,1.0,0.9529411764705882,2.1468460895513233,0.3539473684210526,11.632579199998872
31,0.0005699191974211625,0.6780132227594202,0.9343181818181818,0.5667924982936758,0.8184210526315789,0.8195243669186724,0.975,0.8382352941176471,1.7588562014855837,0.375,11.616136599997844
32,0.0005668939542278249,0.6821808225458319,0.9197727272727273,0.378104000028811,0.8776315789473684,0.8776453944630468,1.0,0.9323529411764706,1.382719782622237,0.4618421052631579,11.633509600000252
33,0.0005637326367617472,0.6696014689315449,0.9292045454545454,0.43471554768712894,0.8578947368421053,0.8573089517311561,1.0,0.9220588235294118,1.1501450386486556,0.5434210526315789,11.635671000000002
34,0.0005604368598267504,0.6918265559456566,0.9225,0.5021277970389316,0.8460526315789474,0.8436907531096868,1.0,0.8838235294117647,0.9664782872325496,0.6144736842105263,11.6198908999977
35,0.0005570083069086733,0.684412908337333,0.9263636363636364,0.4155056187981053,0.8763157894736842,0.8762728659094149,1.0,0.9338235294117647,0.8230149518502387,0.6723684210526316,11.603771199999755
36,0.0005534487293154471,0.6490667787465182,0.9343181818181818,0.39199756823087994,0.8776315789473684,0.8770409144414071,1.0,0.9426470588235294,0.6992965290420934,0.743421052631579,11.623470999998972
37,0.0005497599452825259,0.6490792779488997,0.9402272727272727,0.35354845053271244,0.8855263157894737,0.8854139004445676,1.0,0.9455882352941176,0.6025760848271219,0.7736842105263158,11.6751734999998
38,0.0005459438390441295,0.6694946018132296,0.9345454545454546,0.40942174070759824,0.8631578947368421,0.8623335288222256,1.0,0.9205882352941176,0.5555495415863237,0.8026315789473685,11.670789600000717
39,0.0005420023598707758,0.6321143334562128,0.9392045454545455,0.37307756260821695,0.8842105263157894,0.8840672098799034,1.0,0.9367647058823529,0.51632260837053,0.8144736842105263,12.089062300001387
40,0.0005379375210735911,0.6602282238006592,0.9367045454545454,0.47251984445672285,0.843421052631579,0.8409123327609007,1.0,0.9147058823529411,0.4868101816428335,0.8263157894736842,11.563487799998256
41,0.0005337513989759092,0.623089875091206,0.9517045454545454,0.3981453355989958,0.8736842105263158,0.8734043070539734,1.0,0.9294117647058824,0.46180893716059235,0.8421052631578947,11.55770240000129
42,0.0005294461318526833,0.6512388389760798,0.9339772727272727,0.4348138097085451,0.85,0.8502887914161162,1.0,0.8970588235294118,0.4447637655233082,0.85,11.590640799997345
43,0.0005250239188382536,0.6782312713969838,0.925340909090909,0.4782173570833708,0.843421052631579,0.8404983800889033,1.0,0.9220588235294118,0.4315354595058843,0.8513157894736842,11.580296300002374
44,0.0005204870188030272,0.6364476175741716,0.9497727272727273,0.4502102898923974,0.8526315789473684,0.8535562892677054,1.0,0.8985294117647059,0.41786723921173496,0.8605263157894737,11.574661200000264
45,0.0005158377491996452,0.6345093801888553,0.9396590909090909,0.4241328986067521,0.868421052631579,0.8682737850831208,1.0,0.9323529411764706,0.4066197445518092,0.8644736842105263,11.537220099999104
46,0.0005110784848792257,0.6118443042581732,0.9513636363636364,0.42600145967383135,0.8657894736842106,0.8647150539032301,1.0,0.9426470588235294,0.39844635285829244,0.8697368421052631,11.625791800001025
47,0.0005062116568782877,0.650575696771795,0.9417045454545454,0.41791197155651294,0.8671052631578947,0.8647917637135369,1.0,0.9161764705882353,0.391860420452921,0.8723684210526316,11.641480400001456
48,0.0005012397511769754,0.6204376186024059,0.9501136363636363,0.5394216832361723,0.8236842105263158,0.8173722857693446,1.0,0.8602941176470589,0.38564991323571457,0.875,11.759138999997958
49,0.0004961653074292177,0.6513751526312395,0.9421590909090909,0.40941523689972725,0.881578947368421,0.8819899576738444,1.0,0.9411764705882353,0.38460474327990885,0.8789473684210526,11.593116199997894
50,0.0004909909176654702,0.6421822552247481,0.9470454545454545,0.4489032942997782,0.8578947368421053,0.859303412751976,1.0,0.9161764705882353,0.3823829054832458,0.8776315789473684,11.696528899999976
51,0.00048571922496870357,0.6349709020961415,0.9497727272727273,0.4401270427201924,0.8592105263157894,0.8582404893924392,1.0,0.9264705882352942,0.3819240789664419,0.881578947368421,11.867065100002947
52,0.00048035292212431514,0.6441059257767418,0.9404545454545454,0.4495226417717181,0.8671052631578947,0.8660515603834085,1.0,0.9147058823529411,0.38119374199917444,0.8828947368421053,11.645937799999956
53,0.0004748947502446508,0.6328994497385892,0.9473863636363636,0.4041156160204034,0.8855263157894737,0.8854605706434592,1.0,0.9397058823529412,0.37703650562386765,0.8828947368421053,11.72232680000161
54,0.00046934749736884306,0.6582722633535212,0.9375,0.443640135777624,0.8657894736842106,0.8648710821833816,1.0,0.9,0.37659313772854053,0.881578947368421,11.670906899998954
55,0.0004637139970386777,0.6361111148920926,0.9505681818181818,0.4950897219933962,0.8381578947368421,0.8373383993429758,1.0,0.8941176470588236,0.3765565163210819,0.8868421052631579,11.720110899997962
56,0.000457997126851218,0.6142325641892173,0.9576136363636364,0.4223962874788987,0.868421052631579,0.8692158764251596,1.0,0.9176470588235294,0.37534553157655814,0.8868421052631579,12.066649600001256
57,0.00045219980698892607,0.6176856069131331,0.9544318181818182,0.3730452700665123,0.8828947368421053,0.8835174190319066,1.0,0.9455882352941176,0.3741764275651229,0.8855263157894737,11.803751899999043
58,0.0004463249987280305,0.6619039561531761,0.9351136363636363,0.43486657299493486,0.8710526315789474,0.8717226920029066,1.0,0.9191176470588235,0.372815844259764,0.8907894736842106,11.710270200001105
59,0.000440375702925904,0.6116413788361983,0.9540909090909091,0.45092560711659885,0.85,0.8498044533856162,1.0,0.9073529411764706,0.3736002476591813,0.8934210526315789,11.680617499998334
60,0.0004343549584882226,0.6488156563585454,0.9501136363636363,0.4499680779482189,0.8605263157894737,0.8603406042105528,1.0,0.9058823529411765,0.37571752416460136,0.8907894736842106,12.210990999999922
61,0.00042826584081669025,0.6342385784062472,0.94375,0.49185967727711327,0.8394736842105263,0.8420699762361838,1.0,0.888235294117647,0.3744175961143092,0.8907894736842106,11.659610400001839
62,0.00042211146023812037,0.6568017829548228,0.9436363636363636,0.505843072188528,0.8381578947368421,0.8407649807999373,0.925,0.8647058823529412,0.37482526678788036,0.8881578947368421,11.629340100000263
63,0.0004158949604156783,0.6047999693046917,0.9526136363636364,0.41535809228294773,0.8710526315789474,0.8698204249821913,1.0,0.9323529411764706,0.3745459509523291,0.8868421052631579,11.591651199996704
64,0.0004096195167430953,0.6122816827080466,0.9527272727272728,0.38877049496299343,0.8868421052631579,0.8873407726265631,1.0,0.9426470588235294,0.3733739354108509,0.8907894736842106,11.556255700001202
65,0.0004032883347226749,0.6052279776876623,0.9551136363636363,0.44971843581450616,0.8605263157894737,0.8569486906825127,1.0,0.9073529411764706,0.37485210926909196,0.8894736842105263,11.56625720000011
66,0.0003969046483279189,0.5953605162013661,0.9611363636363637,0.4594932976521944,0.8526315789473684,0.8504573868129073,1.0,0.9176470588235294,0.37815290814951846,0.8828947368421053,11.548051000001578
67,0.0003904717183516109,0.6256825531612743,0.9497727272727273,0.42644765816236796,0.8763157894736842,0.8767413077887658,1.0,0.9308823529411765,0.3798694416096336,0.8842105263157894,11.558043000000907
68,0.0003839928307402005,0.5847214020382274,0.9564772727272727,0.41363834519135323,0.8644736842105263,0.8635319190293961,1.0,0.9264705882352942,0.38462396013109307,0.881578947368421,11.618374499998026
69,0.00037747129491533916,0.6412183317271146,0.9493181818181818,0.4947313813786758,0.8447368421052631,0.8420708748615725,1.0,0.8852941176470588,0.38808473191763226,0.881578947368421,11.626466300000175
70,0.0003709104420834241,0.5915606093406677,0.954659090909091,0.5039054873742556,0.8289473684210527,0.8300281906182037,1.0,0.8691176470588236,0.3860141158103943,0.8802631578947369,11.53364959999817
71,0.00036431362353401533,0.619638192545284,0.9535227272727272,0.4414874823469865,0.8710526315789474,0.8701575338464214,1.0,0.9205882352941176,0.38709250970890646,0.8828947368421053,11.737019700001838
72,0.0003576842089279937,0.6337260567058216,0.9602272727272727,0.4201379070156499,0.868421052631579,0.868294226408857,1.0,0.925,0.387418647502598,0.8802631578947369,12.381184800000483
73,0.0003510255845763356,0.6192778104001826,0.95,0.44844665339118556,0.8697368421052631,0.8692248469160637,1.0,0.925,0.3893700841226076,0.8789473684210526,12.271234600000753
74,0.0003443411517103819,0.5764922538670627,0.9717045454545454,0.3904350287035892,0.8671052631578947,0.8665009542272764,1.0,0.9294117647058824,0.390568502953178,0.881578947368421,12.22513919999983
75,0.0003376343247444856,0.5909914631193335,0.9579545454545455,0.4887101013409464,0.8407894736842105,0.8410998392601226,1.0,0.8941176470588236,0.3909510568568581,0.8789473684210526,12.267584299999726
76,0.0003309085295319264,0.6488749214735898,0.9547727272727272,0.49394619558986863,0.8355263157894737,0.8333039543470859,1.0,0.8794117647058823,0.3917800504910319,0.8776315789473684,12.295542399999249
77,0.0003241672016149815,0.6175211373242465,0.9506818181818182,0.4386485843281997,0.8552631578947368,0.8573553079265512,1.0,0.9044117647058824,0.39010567916067024,0.8776315789473684,12.236281800000143
78,0.00031741378447004763,0.5998966599594463,0.9579545454545455,0.41048941298534997,0.8697368421052631,0.8695512377760386,1.0,0.9220588235294118,0.38763993978500366,0.8802631578947369,12.270631899998989
79,0.00031065172774871004,0.5935965067690069,0.9607954545454546,0.4802606673617112,0.8486842105263158,0.8478975234314381,1.0,0.9088235294117647,0.38572419913191547,0.8802631578947369,12.271013599998696
80,0.00030388448551565744,0.5934415079246868,0.9593181818181818,0.4547166516906337,0.8552631578947368,0.851667129875868,1.0,0.9058823529411765,0.38292441179877834,0.881578947368421,12.251173799999378
81,0.0002971155144843426,0.6185862944342874,0.9620454545454545,0.44281897231152184,0.8605263157894737,0.8596694604011678,1.0,0.9323529411764706,0.3822174467538532,0.8828947368421053,12.174880600003235
82,0.0002903482722512899,0.6284768681092696,0.9644318181818182,0.43083568403595374,0.8763157894736842,0.875585216301509,1.0,0.9308823529411765,0.38179188841267636,0.881578947368421,12.155599300000176
83,0.0002835862155299524,0.5675686218521812,0.9679545454545454,0.43432315964447826,0.8618421052631579,0.8588770778590892,1.0,0.9117647058823529,0.38088836732663606,0.8842105263157894,12.23628589999862
84,0.00027683279838501855,0.6114925974065607,0.9589772727272727,0.4969573162103954,0.8368421052631579,0.8374946606995289,1.0,0.9102941176470588,0.38203884018094914,0.8855263157894737,12.165078700003505
85,0.00027009147046807365,0.6002301566167311,0.9660227272727273,0.45267719406830637,0.8565789473684211,0.8551423535805766,1.0,0.9191176470588235,0.38548555970191956,0.8855263157894737,12.22268559999793
86,0.0002633656752555145,0.6079231901602311,0.9590909090909091,0.4113527404634576,0.881578947368421,0.8809829106661742,1.0,0.9323529411764706,0.38525093574272956,0.8868421052631579,12.171639000000141
87,0.00025665884828961807,0.5974230721863834,0.9636363636363636,0.4509000285675651,0.8578947368421053,0.8573125973592044,1.0,0.9029411764705882,0.3850506421766783,0.8855263157894737,12.298627000000124
88,0.00024997441542366436,0.5805109046805988,0.9696590909090909,0.4235445527653945,0.868421052631579,0.8688052353692388,1.0,0.9161764705882353,0.38484750107715004,0.8842105263157894,12.195100600001751
89,0.00024331579107200632,0.586226819862019,0.9614772727272727,0.46290154613946616,0.843421052631579,0.8444992242209859,1.0,0.9044117647058824,0.3859407936271868,0.8828947368421053,12.184213100001216
90,0.0002366863764659847,0.6094946846094998,0.9648863636363636,0.46727070024139,0.8565789473684211,0.8556417637974796,1.0,0.9044117647058824,0.38520829018793606,0.8842105263157894,12.19020570000066
91,0.0002300895579165759,0.6136980644139377,0.9602272727272727,0.41713377300061677,0.8671052631578947,0.867325906562793,1.0,0.9220588235294118,0.387431295921928,0.8855263157894737,12.128406499999983
92,0.0002235287050846607,0.637008581161499,0.9553409090909091,0.44976598024368286,0.8526315789473684,0.8505717527484942,1.0,0.9029411764705882,0.3920255560623972,0.8842105263157894,12.137149499998486
93,0.00021700716925979942,0.6282844801382585,0.9634090909090909,0.4702854366678941,0.8526315789473684,0.8490173454063077,1.0,0.8867647058823529,0.3946465335394207,0.8776315789473684,12.226029900000867
94,0.00021052828164838913,0.602230494889346,0.9654545454545455,0.4379791658175619,0.8618421052631579,0.8612388164884557,1.0,0.9220588235294118,0.3957248480696427,0.8776315789473684,12.142159099999844
95,0.00020409535167208103,0.5688518244569952,0.9701136363636363,0.4038740462378452,0.8736842105263158,0.8730953683588261,1.0,0.9220588235294118,0.3937585934212333,0.8789473684210526,12.220098400001007
96,0.00019771166527732506,0.576801383712075,0.9589772727272727,0.4332206716662959,0.8605263157894737,0.8601497125536213,1.0,0.925,0.3953479173936342,0.8802631578947369,12.24808949999715
97,0.00019138048325690465,0.6180504871498455,0.9627272727272728,0.480124463846809,0.8539473684210527,0.8548871678733393,1.0,0.9029411764705882,0.39777342237924274,0.8789473684210526,12.276955699999235
98,0.00018510503958432174,0.6106587995182384,0.95,0.4579774153859992,0.8526315789473684,0.8515884127600227,1.0,0.8985294117647059,0.3980617727103986,0.875,12.207220699998288
99,0.0001788885397618797,0.6134824012626301,0.9535227272727272,0.4140556740133386,0.8828947368421053,0.8817430352820891,1.0,0.9323529411764706,0.39922947162076045,0.875,12.218381300001056
100,0.00017273415918330973,0.6004213789376346,0.954659090909091,0.42685639293570266,0.868421052631579,0.8685932243421236,1.0,0.9235294117647059,0.40130482817951,0.875,12.22720499999923
101,0.00016664504151177735,0.6094286617365751,0.9555681818181818,0.48802474266604373,0.8473684210526315,0.8470817880094454,1.0,0.8955882352941177,0.40473488286921855,0.8789473684210526,12.26970860000074
102,0.00016062429707409598,0.5920533607222818,0.9621590909090909,0.41410506336312547,0.8697368421052631,0.869636095479508,1.0,0.9294117647058824,0.40543831367241706,0.8776315789473684,12.204115100001218
103,0.00015467500127196946,0.578921494809064,0.9563636363636364,0.44261852126372486,0.868421052631579,0.8669615428236119,1.0,0.8985294117647059,0.40660143463235154,0.8763157894736842,12.209129900002154
104,0.0001488001930110739,0.5674505225094882,0.9742045454545455,0.44082794252194857,0.8710526315789474,0.8705545067101379,1.0,0.913235294117647,0.4075335847704034,0.8763157894736842,12.206730900001276
105,0.00014300287314878202,0.6122136041251096,0.951590909090909,0.44796455753476994,0.8618421052631579,0.8611439379612401,1.0,0.9,0.40750113945258293,0.8763157894736842,12.23904969999785
106,0.00013728600296132235,0.5467422749779441,0.9775,0.40950052455851904,0.8789473684210526,0.8791010469691342,1.0,0.9279411764705883,0.40606095226187455,0.8776315789473684,12.20687739999994
107,0.00013165250263115694,0.594276952310042,0.9572727272727273,0.461170157319621,0.8644736842105263,0.8634918133968691,1.0,0.9073529411764706,0.40603284427994174,0.8763157894736842,12.198514700001397
108,0.0001261052497553492,0.6095313705097545,0.9640909090909091,0.4778368498149671,0.8578947368421053,0.8584768795727766,1.0,0.8955882352941177,0.40682075807922763,0.8736842105263158,12.193110399999568
109,0.0001206470778756849,0.5897161400318146,0.9701136363636363,0.4823494360635155,0.8486842105263158,0.8481165752866342,1.0,0.8867647058823529,0.4081646558485533,0.875,12.16862029999902
110,0.0001152807750312964,0.60315408392386,0.9609090909090909,0.4496723372685282,0.8697368421052631,0.8689734776822166,1.0,0.9205882352941176,0.4099529065583882,0.8763157894736842,12.232875499998045
111,0.00011000908233452982,0.554289373701269,0.9784090909090909,0.44211739019343727,0.8723684210526316,0.8709103666623224,1.0,0.9102941176470588,0.4110694474295566,0.8763157894736842,12.160468900001433
112,0.00010483469257078224,0.5848139820315621,0.9679545454545454,0.42483584723974527,0.8697368421052631,0.8695997153637995,1.0,0.9191176470588235,0.4144336898075907,0.875,12.278358599996864
113,9.976024882302456e-05,0.6081786377863451,0.96,0.4273348347136849,0.8697368421052631,0.8688323447933307,1.0,0.9147058823529411,0.41654293662623354,0.8736842105263158,12.183591799999704
114,9.478834312171236e-05,0.5952434091134505,0.9626136363636364,0.4498645189561342,0.8605263157894737,0.8615411208424586,1.0,0.9014705882352941,0.4187548998155092,0.875,12.240653299999394
115,8.992151512077429e-05,0.5727706240523945,0.9753409090909091,0.43174045054536114,0.8697368421052631,0.869524831811041,1.0,0.9102941176470588,0.41842169604803386,0.8776315789473684,12.178543500001979
116,8.516225080035476e-05,0.6012858434156938,0.9517045454545454,0.4500745271381579,0.8644736842105263,0.8636066775601658,1.0,0.9191176470588235,0.41905075844965484,0.8776315789473684,12.280205700000806
117,8.051298119697266e-05,0.5993428230285645,0.9575,0.47046573067966263,0.8592105263157894,0.8592901372388482,1.0,0.8941176470588236,0.41955116736261466,0.875,12.218146800001705
118,7.597608116174637e-05,0.5683084149794145,0.9773863636363637,0.4354237606650905,0.8736842105263158,0.873864716893247,1.0,0.9147058823529411,0.42036727164921006,0.8723684210526316,12.199887999999191
119,7.155386814731662e-05,0.5971680731123143,0.9678409090909091,0.4296895080491116,0.8671052631578947,0.8663593102169219,1.0,0.9147058823529411,0.4215609898692683,0.875,12.393894800003181
120,6.724860102409081e-05,0.5889635322310708,0.975,0.45922578541856063,0.8710526315789474,0.8705401671040909,1.0,0.9117647058823529,0.42122055888175963,0.8723684210526316,12.286014500001329
121,6.306247892640888e-05,0.5743018982627175,0.9672727272727273,0.45932826023352774,0.8592105263157894,0.8598131551891386,1.0,0.8955882352941177,0.4225946526778372,0.8723684210526316,12.291919600000256
122,5.899764012922409e-05,0.611977658922022,0.9648863636363636,0.4393952222246873,0.8710526315789474,0.8709940145387186,1.0,0.9147058823529411,0.42413410418911984,0.8736842105263158,12.208117300000595
123,5.5056160955870474e-05,0.5818445266376843,0.9743181818181819,0.4574417111120726,0.8605263157894737,0.8606805739898862,1.0,0.8926470588235295,0.4268964259248031,0.8710526315789474,12.232521999998426
124,5.1240054717474066e-05,0.5623126970637928,0.97375,0.5051112118520235,0.8355263157894737,0.8355493168708257,1.0,0.8794117647058823,0.42762322645438344,0.8710526315789474,12.198345900000277
125,4.755127068455278e-05,0.5956795211271806,0.97,0.4505014519942434,0.8657894736842106,0.8652617726578461,1.0,0.9044117647058824,0.42979864729078193,0.8697368421052631,12.220447700001387
126,4.399169309132677e-05,0.5606913716142827,0.9765909090909091,0.4443335279038078,0.8618421052631579,0.8612904263905581,1.0,0.9044117647058824,0.43096177044667694,0.8710526315789474,12.317084500002238
127,4.0563140173249585e-05,0.6023449598659169,0.9696590909090909,0.46735446358981886,0.8565789473684211,0.8560459008378718,1.0,0.8985294117647059,0.4325657888462669,0.868421052631579,12.16801470000064
128,3.726736323825278e-05,0.5612091199918227,0.9727272727272728,0.46727182488692437,0.8552631578947368,0.8551878139722746,1.0,0.8911764705882353,0.4330959109883559,0.868421052631579,12.211472899998626
129,3.41060457721751e-05,0.5707479705593803,0.9770454545454546,0.4515514176142843,0.868421052631579,0.8687599364725582,1.0,0.9,0.43340462195245844,0.868421052631579,12.159064499999658
130,3.1080802578837415e-05,0.5792088040438566,0.9785227272727273,0.4433326310233066,0.8697368421052631,0.8697368198193404,1.0,0.9191176470588235,0.4340201117490467,0.868421052631579,12.19012389999989
131,2.8193178955198895e-05,0.6033649041435936,0.9698863636363636,0.4762973986173931,0.8539473684210527,0.853169767766896,1.0,0.8926470588235295,0.43586506059295255,0.8631578947368421,12.18135970000003
132,2.544464990201774e-05,0.5725574834780259,0.9697727272727272,0.45279621356411986,0.8565789473684211,0.855828133019215,1.0,0.9058823529411765,0.43628853151672764,0.8618421052631579,12.2091920999992
133,2.283661937042025e-05,0.5807156812060963,0.9692045454545455,0.448816159210707,0.8618421052631579,0.8607383726945945,1.0,0.9029411764705882,0.436824758742985,0.8631578947368421,12.372753499999817
134,2.0370419544760518e-05,0.5347060027989474,0.9854545454545455,0.43788636922836305,0.8671052631578947,0.867064525521473,1.0,0.9102941176470588,0.4365496189970719,0.8644736842105263,12.22592799999984
135,1.804731016213988e-05,0.5866555894504893,0.9686363636363636,0.4499767494829077,0.8605263157894737,0.8603562545991847,1.0,0.8985294117647059,0.4366419738844821,0.8644736842105263,12.17398680000042
136,1.5868477868931964e-05,0.586043400330977,0.9747727272727272,0.4684080428198764,0.8578947368421053,0.8581370399783348,1.0,0.8926470588235295,0.4376279332135853,0.8657894736842106,12.29573480000181
137,1.3835035614642541e-05,0.6057329314405268,0.9569318181818182,0.4464704017890127,0.8631578947368421,0.8630220543316307,1.0,0.9088235294117647,0.4388517684058139,0.8631578947368421,12.197880200001237
138,1.1948022083414199e-05,0.5821747957576405,0.9719318181818182,0.4378849227177469,0.8671052631578947,0.8666413893077362,1.0,0.9176470588235294,0.4399091228058464,0.8605263157894737,12.215792399998463
139,1.0208401163465185e-05,0.5832470497218045,0.9606818181818182,0.4471290189968912,0.8671052631578947,0.867253913478014,1.0,0.9044117647058824,0.44054950914884866,0.8605263157894737,12.195778799999971
140,8.617061454734755e-06,0.5672345471382141,0.9784090909090909,0.45398527477916917,0.8605263157894737,0.860198529500682,1.0,0.9102941176470588,0.44075919797545987,0.8644736842105263,12.245587800000067
141,7.1748158149852224e-06,0.6037285247716037,0.9610227272727273,0.4508743292406986,0.8605263157894737,0.86073610461105,1.0,0.8955882352941177,0.44153603033015604,0.8644736842105263,12.236523399998987
142,5.882400944593751e-06,0.6121785902976989,0.9647727272727272,0.4501533113027874,0.8657894736842106,0.8658192170270403,1.0,0.9058823529411765,0.4423250709709368,0.8644736842105263,12.328980400001456
143,4.740477010244959e-06,0.5951450907100331,0.9732954545454545,0.44184369570330567,0.8671052631578947,0.8669872658797066,1.0,0.9073529411764706,0.4427413949840947,0.8644736842105263,12.065181199999643
144,3.7496273077172435e-06,0.5488499949195168,0.9796590909090909,0.437175148411801,0.8644736842105263,0.8644928083038792,1.0,0.9073529411764706,0.4424531638622284,0.8644736842105263,11.700106299998879
145,2.9103579639347222e-06,0.5988355619257146,0.9660227272727273,0.4489493931594648,0.8631578947368421,0.8631981625579701,1.0,0.9029411764705882,0.44304986156915366,0.8644736842105263,11.336468499997864
146,2.223097678437247e-06,0.6174894436922941,0.9602272727272727,0.46237319174565766,0.8592105263157894,0.8586826408206741,1.0,0.9014705882352941,0.4439731795536844,0.8644736842105263,11.818829499999993
147,1.6881975044002091e-06,0.621037729436701,0.9675,0.4431273620379598,0.8631578947368421,0.8630539804716006,1.0,0.9117647058823529,0.44491922416185076,0.8631578947368421,12.074006599999848
148,1.3059306693162125e-06,0.5934697497974742,0.9676136363636364,0.45424154149858575,0.8644736842105263,0.8649357352069249,1.0,0.9,0.44503117611533716,0.8631578947368421,12.0258845999997
149,1.0764924354303636e-06,0.6163586444204504,0.9605681818181818,0.4405658916423195,0.8644736842105263,0.864284678107826,1.0,0.9058823529411765,0.44590855617272224,0.8644736842105263,11.981685699996888
150,1e-06,0.5908281016349792,0.9742045454545455,0.45702964287055164,0.8592105263157894,0.85895337205917,1.0,0.9,0.4459474271849582,0.8657894736842106,12.010503500001505
