epoch,lr,train_loss,train_accuracy,val_loss,val_accuracy,val_macro_f1,val_trial_accuracy,val_k3,ema_loss,ema_accuracy,seconds
1,5.9999999999999995e-05,1.4557935615019364,0.40954545454545455,1.1010792820077193,0.55,0.500093177166542,0.7,0.5794117647058824,1.609399410297996,0.2,6.304273400004604
2,0.00011999999999999999,1.240229907469316,0.5589772727272727,0.8760021448135376,0.6605263157894737,0.6366943060775765,0.75,0.7058823529411765,1.6103001644736843,0.2,6.2181022000004305
3,0.00018,1.0672879097678445,0.6954545454545454,0.6559514861357839,0.7723684210526316,0.7659563483494499,0.9,0.8235294117647058,1.6126683285361842,0.2,6.192087700001139
4,0.00023999999999999998,0.9592760500040921,0.7548863636363636,0.5785957725424515,0.7947368421052632,0.7884354329932388,0.95,0.8382352941176471,1.6237857216282894,0.2,6.233881300002395
5,0.0003,0.9621589695323597,0.7668181818181818,0.4709046401475605,0.8421052631578947,0.841174720707062,1.0,0.9073529411764706,1.6483732562316091,0.2,6.196276800001215
6,0.00035999999999999997,0.8926384266940031,0.8086363636363636,0.4917483085080197,0.8460526315789474,0.8435320400450003,0.975,0.8867647058823529,1.698847398632451,0.2,6.240459200002078
7,0.00042,0.8756499520215121,0.8105681818181818,0.41224426595788255,0.8657894736842106,0.863045316106783,1.0,0.9161764705882353,1.763470779594622,0.2,6.218684599996777
8,0.0004799999999999999,0.8548774207722057,0.8269318181818182,0.399413337833003,0.8657894736842106,0.8633527850056384,1.0,0.9088235294117647,1.8528211072871559,0.2,6.205457000003662
9,0.00054,0.8174124823917042,0.8370454545454545,0.4097221286673295,0.8736842105263158,0.872565209062359,1.0,0.9176470588235294,1.9787796811053628,0.2,6.2244793999998365
10,0.0005999999999999998,0.8306613232872703,0.8430681818181818,0.40452318756203903,0.8605263157894737,0.8596705061155848,1.0,0.9176470588235294,2.093609618199499,0.2,6.218228800003999
11,0.0006,0.8338039361346852,0.8375,0.3980298101902008,0.8697368421052631,0.8696612669004626,1.0,0.9426470588235294,2.18543861853449,0.2,6.229120200005127
12,0.0005999235075645696,0.8201658621701328,0.8484090909090909,0.4041020625515988,0.8802631578947369,0.8791264948876952,1.0,0.9367647058823529,2.277029580191562,0.2,6.229358299999149
13,0.0005996940693306837,0.7975719471411271,0.8634090909090909,0.4183226946153139,0.8644736842105263,0.8650749276150297,1.0,0.925,2.3490340392840534,0.2,6.238952200001222
14,0.0005993118024955998,0.7924955168637362,0.862840909090909,0.39429457909182497,0.8736842105263158,0.8733148914624878,1.0,0.9352941176470588,2.476201910564774,0.2,6.218204799995874
15,0.0005987769023215627,0.8247682508555325,0.8490909090909091,0.46146437086557085,0.8526315789473684,0.8515974812809393,1.0,0.9161764705882353,2.5941115525208023,0.2,6.182192799999029
16,0.0005980896420360653,0.8070193381742997,0.8586363636363636,0.356777391621941,0.9078947368421053,0.9071364074432229,1.0,0.9588235294117647,2.750318506830617,0.2,6.20105070000136
17,0.0005972503726922827,0.7223404602570968,0.8859090909090909,0.43860483608747786,0.8421052631578947,0.8424859995061686,1.0,0.9147058823529411,2.885693600146394,0.2,6.23592859999917
18,0.0005962595229897549,0.7766401238874956,0.8686363636363637,0.3780939196285449,0.8855263157894737,0.8845878114163745,1.0,0.9382352941176471,3.019388941479357,0.2,6.280331000001752
19,0.0005951175990554061,0.7311254707249728,0.8888636363636364,0.4830636275442023,0.8328947368421052,0.8335948663868574,0.975,0.8897058823529411,3.0716148778011925,0.2,6.297877199998766
20,0.0005938251841850148,0.7659431444514881,0.8723863636363637,0.5098942207662682,0.8118421052631579,0.8081187464021913,0.975,0.8602941176470589,3.028963430539558,0.2,6.156465799998841
21,0.0005923829385452652,0.7413540692762896,0.8922727272727272,0.4025303893967679,0.8802631578947369,0.8797183653602406,1.0,0.95,3.0018953825298107,0.2,6.316892599999846
22,0.0005907915988365347,0.7543775190006603,0.8931818181818182,0.40085625993578056,0.8921052631578947,0.8925445414852261,1.0,0.9397058823529412,2.9804471470023457,0.2,6.374241199999233
23,0.0005890519779165858,0.6818177650191567,0.9095454545454545,0.3797913403887498,0.875,0.8750426616054725,1.0,0.9426470588235294,2.9470364220832526,0.2,6.321492200004286
24,0.0005871649643853574,0.7377036512981762,0.8954545454545455,0.40769203587582237,0.8710526315789474,0.869806558850069,1.0,0.9441176470588235,2.8894354570853085,0.2,6.255549400004384
25,0.000585131522131068,0.7242174828052521,0.8968181818181818,0.4230978332067791,0.8671052631578947,0.8657751930661846,1.0,0.925,2.836886436296137,0.2,6.1227610999994795
26,0.0005829526898378601,0.6943888382478194,0.9057954545454545,0.4197813736765008,0.8763157894736842,0.8764741309799536,1.0,0.9279411764705883,2.767166218161583,0.2,6.0009043000027305
27,0.0005806295804552395,0.7075783345916055,0.9123863636363636,0.39515569523761146,0.8828947368421053,0.8821708078878325,1.0,0.9426470588235294,2.7069884453164903,0.2013157894736842,6.0100342000005185
28,0.0005781633806295796,0.7365057375214317,0.9072727272727272,0.418674910068512,0.8657894736842106,0.8642202377446647,1.0,0.9294117647058824,2.598935739774453,0.20526315789473684,6.014190200003213
29,0.0005755553500979822,0.6980330647121776,0.9123863636363636,0.3891315673526965,0.875,0.8738796686428183,1.0,0.9529411764705882,2.468420209461137,0.21578947368421053,6.023948400004883
30,0.0005728068210448012,0.706297934922305,0.9126136363636363,0.43836798605165983,0.8644736842105263,0.8628592185622228,1.0,0.9102941176470588,2.283102015601961,0.2578947368421053,5.972195700000157
31,0.0005699191974211625,0.6920572619004683,0.9190909090909091,0.41748781706157484,0.8657894736842106,0.8638063251186863,1.0,0.9147058823529411,2.074659728847052,0.33421052631578946,5.967033100001572
32,0.0005668939542278249,0.6984596694599499,0.9022727272727272,0.4072637865417882,0.8881578947368421,0.8875299736372737,0.975,0.9397058823529412,1.863667979836464,0.4026315789473684,5.989617400002317
33,0.0005637326367617472,0.6708945666659962,0.9239772727272727,0.3726781744706003,0.8894736842105263,0.8891347461661437,1.0,0.9397058823529412,1.6180556446313858,0.4644736842105263,5.989890599994396
34,0.0005604368598267504,0.7136448062549938,0.9140909090909091,0.415176270510021,0.8644736842105263,0.862647762914548,1.0,0.9161764705882353,1.386271265854961,0.5144736842105263,5.979134799999883
35,0.0005570083069086733,0.6710158950632269,0.9273863636363636,0.40512594957100717,0.8789473684210526,0.878650815282923,0.975,0.9382352941176471,1.1759193425115786,0.5644736842105263,5.987773799999559
36,0.0005534487293154471,0.7112289500236512,0.9123863636363636,0.43654239114962123,0.8671052631578947,0.8673143396365226,0.95,0.9176470588235294,0.974904833028191,0.6434210526315789,5.984392599995772
37,0.0005497599452825259,0.6702160345424305,0.9273863636363636,0.4110400168519271,0.8671052631578947,0.8665624076724091,1.0,0.9161764705882353,0.8109980534566076,0.7065789473684211,6.005568900000071
38,0.0005459438390441295,0.6907561991431497,0.9197727272727273,0.45127053417657553,0.8710526315789474,0.871180878683931,1.0,0.9088235294117647,0.7055187024568257,0.7447368421052631,5.9944642999980715
39,0.0005420023598707758,0.6609191439368508,0.9248863636363637,0.448590288036748,0.8552631578947368,0.8545615329061104,0.975,0.9,0.6319456401624177,0.7736842105263158,5.999438499995449
40,0.0005379375210735911,0.6901658834110607,0.9259090909090909,0.44424952456825656,0.8552631578947368,0.8547348625931532,0.95,0.9058823529411765,0.5741685969264884,0.7973684210526316,5.981762499999604
41,0.0005337513989759092,0.7127822256088256,0.92125,0.4431396101650439,0.8697368421052631,0.8688276453549475,1.0,0.925,0.524725582097706,0.8210526315789474,5.977064600003359
42,0.0005294461318526833,0.6324110837416216,0.9461363636363637,0.3915391639659279,0.8736842105263158,0.8723760338880318,1.0,0.9411764705882353,0.4890408977081901,0.8407894736842105,5.981599499995355
43,0.0005250239188382536,0.6858632451837713,0.9286363636363636,0.48642726885645016,0.8342105263157895,0.8315428333070942,0.975,0.8867647058823529,0.46131395132918107,0.85,6.00755869999557
44,0.0005204870188030272,0.6539209584756331,0.9325,0.4226278198392768,0.8697368421052631,0.8687008631647986,1.0,0.9264705882352942,0.438770656209243,0.8644736842105263,5.952674899999693
45,0.0005158377491996452,0.6684678222916343,0.9279545454545455,0.42185070577420686,0.875,0.8740814712033034,1.0,0.9352941176470588,0.4261558526440671,0.8671052631578947,5.970352600001206
46,0.0005110784848792257,0.6644438596205278,0.930340909090909,0.502900659410577,0.8368421052631579,0.8336216492955195,1.0,0.8970588235294118,0.41263740972468727,0.8671052631578947,6.0231800000037765
47,0.0005062116568782877,0.6859546079418876,0.9267045454545455,0.4561048426126179,0.8526315789473684,0.8513632295905837,0.975,0.9014705882352941,0.40628979331568665,0.8710526315789474,6.0169077000027755
48,0.0005012397511769754,0.6861875758387825,0.9309090909090909,0.4443825966433475,0.8710526315789474,0.8705719153731689,1.0,0.9397058823529412,0.40212779798005754,0.8736842105263158,6.018639499998244
49,0.0004961653074292177,0.6726517774842002,0.9321590909090909,0.45612174680358486,0.85,0.8504983066296493,0.95,0.9117647058823529,0.39778647203194467,0.875,6.010592099999485
50,0.0004909909176654702,0.6785445878722451,0.9192045454545454,0.4783128434105923,0.8381578947368421,0.8386897522642782,0.95,0.9014705882352941,0.3938584167706339,0.8789473684210526,5.964272799996252
51,0.00048571922496870357,0.6635691142082214,0.9321590909090909,0.41895117571479396,0.868421052631579,0.8648650063934964,1.0,0.9235294117647059,0.38920681664818213,0.8802631578947369,5.981428199993388
52,0.00048035292212431514,0.6551447672193701,0.9405681818181818,0.407133643564425,0.8697368421052631,0.8697940007482774,1.0,0.9455882352941176,0.38769635746353553,0.8828947368421053,5.983055400000012
53,0.0004748947502446508,0.6805091218514876,0.9226136363636364,0.40914194176071567,0.881578947368421,0.8815513857992414,1.0,0.9338235294117647,0.3861439359815497,0.8855263157894737,6.034916299999168
54,0.00046934749736884306,0.668466287092729,0.9268181818181818,0.4348827964381168,0.8802631578947369,0.8797981213275523,0.975,0.9235294117647059,0.3841934197827389,0.8842105263157894,5.997127900001942
55,0.0004637139970386777,0.6985466363213279,0.91625,0.42749079716833016,0.8842105263157894,0.8837302912788474,1.0,0.9323529411764706,0.3838267269887422,0.8842105263157894,5.989723700004106
56,0.000457997126851218,0.6979276124997572,0.9228409090909091,0.4050139558942694,0.881578947368421,0.880979691141008,1.0,0.9279411764705883,0.3840538834270678,0.8881578947368421,5.956337699994037
57,0.00045219980698892607,0.6556764157251879,0.9425,0.4161444422445799,0.8802631578947369,0.88031701230024,1.0,0.9279411764705883,0.3830589705391934,0.8842105263157894,6.0016786999985925
58,0.0004463249987280305,0.6507576605406674,0.9431818181818182,0.39146921164111087,0.881578947368421,0.8812386186441422,1.0,0.9411764705882353,0.38323340070875067,0.8855263157894737,6.000421299999289
59,0.000440375702925904,0.6747951338507913,0.9338636363636363,0.3880236977025082,0.8855263157894737,0.8850908775148794,1.0,0.9485294117647058,0.38406372164425095,0.8868421052631579,5.975672600005055
60,0.0004343549584882226,0.6723155381462791,0.92375,0.42858967059536984,0.875,0.8751591218606152,0.975,0.9264705882352942,0.3838405414631492,0.8894736842105263,6.006133700000646
61,0.00042826584081669025,0.6283348878947171,0.9455681818181818,0.43963855818698283,0.8736842105263158,0.8726543659088628,1.0,0.9264705882352942,0.3833090132788608,0.8894736842105263,5.945354600000428
62,0.00042211146023812037,0.642374062538147,0.9407954545454545,0.3967089201274671,0.8697368421052631,0.8686953265695182,1.0,0.9338235294117647,0.3848270613896219,0.8881578947368421,6.006258800000069
63,0.0004158949604156783,0.6332559585571289,0.9392045454545455,0.36900205016136167,0.8868421052631579,0.886145500171342,1.0,0.9455882352941176,0.3829499094109786,0.8881578947368421,6.020970199999283
64,0.0004096195167430953,0.6336136547001925,0.9503409090909091,0.4625289095075507,0.8513157894736842,0.8508725937980417,1.0,0.9044117647058824,0.3821627974510193,0.8894736842105263,5.986106699994707
65,0.0004032883347226749,0.6732480325482109,0.928409090909091,0.4328751413445724,0.8697368421052631,0.8688761769376043,0.975,0.9308823529411765,0.3830747083613747,0.8894736842105263,6.0020962999988114
66,0.0003969046483279189,0.6332323897968639,0.94125,0.4380609618990045,0.8671052631578947,0.867235105808928,0.95,0.9117647058823529,0.38120422551506444,0.8907894736842106,6.007677100002184
67,0.0003904717183516109,0.6505147458206524,0.9417045454545454,0.4514689392165134,0.8657894736842106,0.8660239641540587,1.0,0.9308823529411765,0.3826448948759782,0.8921052631578947,5.9607277999966755
68,0.0003839928307402005,0.6708318823034113,0.9384090909090909,0.47428042669045295,0.8513157894736842,0.8518402003136167,0.95,0.8985294117647059,0.38390502804204035,0.8934210526315789,5.958311500005948
69,0.00037747129491533916,0.6740727485309947,0.9328409090909091,0.40561290571564124,0.8776315789473684,0.8771980222826453,1.0,0.9411764705882353,0.38452212810516356,0.8947368421052632,6.002556999999797
70,0.0003709104420834241,0.6075143029473045,0.9526136363636364,0.40945699622756554,0.881578947368421,0.8812571800112368,1.0,0.9220588235294118,0.3826350168177956,0.8960526315789473,6.008074799996393
71,0.00036431362353401533,0.6041761080785231,0.9554545454545454,0.4348794234426398,0.8644736842105263,0.8634646862468781,1.0,0.9205882352941176,0.38342100538705526,0.8934210526315789,5.965954399995098
72,0.0003576842089279937,0.6054847039959648,0.9570454545454545,0.43697847159285297,0.8592105263157894,0.8577390370035687,1.0,0.9147058823529411,0.3847414518657484,0.8881578947368421,5.99293949999992
73,0.0003510255845763356,0.6593111697110263,0.9436363636363636,0.4043778278325733,0.8776315789473684,0.8768423740079225,1.0,0.9220588235294118,0.38734805458470395,0.8868421052631579,5.998670000000857
74,0.0003443411517103819,0.6256037564711138,0.9461363636363637,0.4141048230622944,0.8802631578947369,0.8799413147730085,1.0,0.9352941176470588,0.3882983568467592,0.8855263157894737,5.977138999995077
75,0.0003376343247444856,0.6400408105416732,0.94375,0.4176490388418499,0.8723684210526316,0.8711468737700233,1.0,0.9352941176470588,0.39060275335060923,0.8842105263157894,5.991583700000774
76,0.0003309085295319264,0.614598850553686,0.9460227272727273,0.424039741252598,0.8763157894736842,0.8757524455601446,1.0,0.9411764705882353,0.3903347611427307,0.8842105263157894,5.948980000001029
77,0.0003241672016149815,0.6316334262761203,0.9476136363636364,0.41657024214142246,0.8736842105263158,0.8731061429792855,1.0,0.9264705882352942,0.39251331530119243,0.8842105263157894,5.989798499998869
78,0.00031741378447004763,0.6731667113304138,0.9385227272727272,0.4341510173521544,0.8789473684210526,0.8787199825465581,0.975,0.9235294117647059,0.39470512082702236,0.8855263157894737,5.999258499999996
79,0.00031065172774871004,0.639140551740473,0.9548863636363636,0.42492603565517223,0.881578947368421,0.8809402460419772,0.975,0.9308823529411765,0.3963226318359375,0.8868421052631579,6.002872299999581
80,0.00030388448551565744,0.6530914716287093,0.9322727272727273,0.40302750374141494,0.8855263157894737,0.8848338307987985,1.0,0.9279411764705883,0.3969419789941687,0.8842105263157894,5.986797099998512
81,0.0002971155144843426,0.6472639845718037,0.9397727272727273,0.41848473893968685,0.8776315789473684,0.8773301085376517,1.0,0.9294117647058824,0.3971017134817023,0.8842105263157894,5.967880900003365
82,0.0002903482722512899,0.645631026354703,0.9497727272727273,0.4410458210267519,0.8723684210526316,0.8723947560432169,1.0,0.9308823529411765,0.39641362177698236,0.8828947368421053,5.99364400000195
83,0.0002835862155299524,0.6376525968855078,0.9479545454545455,0.4169911434775905,0.8723684210526316,0.8717493425298535,0.975,0.9161764705882353,0.397719533192484,0.8802631578947369,5.9900588000018615
84,0.00027683279838501855,0.6340611404722387,0.9345454545454546,0.4142973253601476,0.8868421052631579,0.8862280143580348,1.0,0.9397058823529412,0.3963410226922286,0.881578947368421,5.978144399996381
85,0.00027009147046807365,0.6365540400418368,0.9492045454545455,0.43956499727148757,0.8644736842105263,0.8640472543911262,1.0,0.9220588235294118,0.3965205939192521,0.8789473684210526,5.996074300004693
86,0.0002633656752555145,0.6401981847936457,0.9532954545454545,0.43851005089910405,0.8776315789473684,0.8771268966802952,1.0,0.9338235294117647,0.3978779058707388,0.8763157894736842,5.982023800002935
87,0.00025665884828961807,0.6331323303959586,0.9467045454545454,0.42148855171705546,0.8710526315789474,0.8713353359505399,1.0,0.9264705882352942,0.39792006517711437,0.8776315789473684,6.014919500004908
88,0.00024997441542366436,0.6357184032960371,0.9455681818181818,0.42547278090527185,0.8697368421052631,0.8690962849352873,1.0,0.9235294117647059,0.39847107059077214,0.8763157894736842,5.9554300000017975
89,0.00024331579107200632,0.6595265739614313,0.9404545454545454,0.4781739896849582,0.8605263157894737,0.8603265128012364,1.0,0.9161764705882353,0.40133980387135554,0.8763157894736842,5.95776879999903
90,0.0002366863764659847,0.6290530930865895,0.96,0.4238924547245628,0.8802631578947369,0.8797709430165307,1.0,0.9338235294117647,0.40530684558968794,0.8736842105263158,6.016787100001238
91,0.0002300895579165759,0.6420755635608326,0.94125,0.4595525634916205,0.8618421052631579,0.8612240105957426,1.0,0.9117647058823529,0.4054852121754696,0.8723684210526316,6.008009599994693
92,0.0002235287050846607,0.6103918147087097,0.95,0.4197969944853532,0.868421052631579,0.8689013382450319,1.0,0.925,0.4051344206458644,0.8723684210526316,5.974849700003688
93,0.00021700716925979942,0.645968965400349,0.9363636363636364,0.4159535869171745,0.8657894736842106,0.8661425777647214,1.0,0.9235294117647059,0.40517875269839637,0.8710526315789474,6.014241199998651
94,0.00021052828164838913,0.627784084406766,0.9548863636363636,0.4076509980778945,0.8776315789473684,0.8776876508363399,1.0,0.9294117647058824,0.40413890731962104,0.8736842105263158,5.985458799994376
95,0.00020409535167208103,0.6252602455832742,0.9569318181818182,0.39484108309996757,0.8881578947368421,0.8878901819800807,1.0,0.9235294117647059,0.4019657332646219,0.8763157894736842,5.96957420000399
96,0.00019771166527732506,0.5937990429184653,0.955,0.43464339344125047,0.8763157894736842,0.8764008136253837,1.0,0.9191176470588235,0.4005746148134533,0.8776315789473684,5.9818385999969905
97,0.00019138048325690465,0.6160614715922963,0.959659090909091,0.42884927046926397,0.8736842105263158,0.8728969593298116,1.0,0.9176470588235294,0.40219847089365907,0.8776315789473684,6.0091180999952485
98,0.00018510503958432174,0.6140583337437023,0.9568181818181818,0.4231144158463729,0.8631578947368421,0.862671683803835,1.0,0.9294117647058824,0.40333693686284516,0.8776315789473684,5.98319199999969
99,0.0001788885397618797,0.6211469149589539,0.9535227272727272,0.41559656921185945,0.868421052631579,0.8681202764007926,1.0,0.9220588235294118,0.4039095423723522,0.8776315789473684,5.982634200001485
100,0.00017273415918330973,0.6484273223443465,0.93375,0.40952815131137243,0.8802631578947369,0.8796250382703349,1.0,0.9352941176470588,0.4034521815023924,0.8776315789473684,5.966244600000209
101,0.00016664504151177735,0.6157624008438803,0.9528409090909091,0.4121229466639067,0.8736842105263158,0.8732290215076681,1.0,0.9367647058823529,0.40223517135569925,0.8763157894736842,6.008179700002074
102,0.00016062429707409598,0.6169299090992321,0.9467045454545454,0.42196920325881554,0.8697368421052631,0.8697490955236,1.0,0.9205882352941176,0.40178913254486887,0.875,5.988722599999164
103,0.00015467500127196946,0.65566039648923,0.945,0.42535311987525537,0.881578947368421,0.8811440595348999,1.0,0.9279411764705883,0.40269317689694856,0.875,5.984949199999392
104,0.0001488001930110739,0.6594930054924705,0.9452272727272727,0.434153266643223,0.8710526315789474,0.8705883764724263,1.0,0.9338235294117647,0.40251272101151314,0.875,5.976216499999282
105,0.00014300287314878202,0.6169182146679272,0.9543181818181818,0.4168016126281337,0.8802631578947369,0.8801712727127133,1.0,0.9352941176470588,0.40085810673864264,0.875,5.990771400000085
106,0.00013728600296132235,0.6310209326310591,0.9505681818181818,0.44415010151110196,0.8763157894736842,0.8762074887729506,1.0,0.9264705882352942,0.40010119049172654,0.8776315789473684,5.975856700002623
107,0.00013165250263115694,0.6203313621607693,0.9488636363636364,0.432934087828586,0.8631578947368421,0.86370275289932,1.0,0.9147058823529411,0.3994212097243259,0.8776315789473684,5.9911741000032634
108,0.0001261052497553492,0.5957083602385087,0.9631818181818181,0.4169215161549418,0.875,0.8751454396444828,1.0,0.9264705882352942,0.39955733387093795,0.881578947368421,6.012942400004249
109,0.0001206470778756849,0.5993662166595459,0.9729545454545454,0.41211066026436655,0.881578947368421,0.8817365702595412,1.0,0.9294117647058824,0.399825487325066,0.8802631578947369,6.005732499994338
110,0.0001152807750312964,0.6233930737322027,0.94625,0.4145125542816363,0.868421052631579,0.8680623388330849,1.0,0.9294117647058824,0.40069146501390557,0.8789473684210526,5.9828099999940605
111,0.00011000908233452982,0.6256596366925673,0.9561363636363637,0.4479565259657408,0.8644736842105263,0.8646654766347247,0.95,0.9088235294117647,0.40209013317760667,0.8789473684210526,5.979435499997635
112,0.00010483469257078224,0.6084172634644942,0.9522727272727273,0.4133733642728705,0.8776315789473684,0.8778185280112666,1.0,0.9205882352941176,0.40146958137813366,0.8789473684210526,5.98219280000194
113,9.976024882302456e-05,0.5914853557673367,0.96,0.4112076605621137,0.8736842105263158,0.8733827358518841,1.0,0.9220588235294118,0.40023980423023825,0.881578947368421,5.97590019999916
114,9.478834312171236e-05,0.5653939613428983,0.9728409090909091,0.416179537145715,0.8763157894736842,0.8760233630141945,1.0,0.9235294117647059,0.40033794296415226,0.8802631578947369,5.957637799998338
115,8.992151512077429e-05,0.6416765568473123,0.9492045454545455,0.4164645543223933,0.8736842105263158,0.8736270991464885,1.0,0.9279411764705883,0.400874167994449,0.8776315789473684,5.987789800004975
116,8.516225080035476e-05,0.6234116365692832,0.9490909090909091,0.4166591443513569,0.881578947368421,0.8817444595818784,1.0,0.9147058823529411,0.4017118758276889,0.8789473684210526,5.967624700002489
117,8.051298119697266e-05,0.6054417079145258,0.9647727272727272,0.41517807778559235,0.8802631578947369,0.8798964132094781,1.0,0.9264705882352942,0.40135080500652914,0.8802631578947369,5.985674900002778
118,7.597608116174637e-05,0.6173766062476418,0.9456818181818182,0.41009368896484377,0.881578947368421,0.8814490128961937,1.0,0.9191176470588235,0.4016082757397702,0.8776315789473684,6.003513000003295
119,7.155386814731662e-05,0.6209230776266618,0.96,0.411579010674828,0.8763157894736842,0.8761736596114318,1.0,0.9220588235294118,0.40148917813050117,0.8776315789473684,5.962652199996228
120,6.724860102409081e-05,0.6412460164590316,0.9472727272727273,0.4163823171665794,0.875,0.8743926387373033,1.0,0.9308823529411765,0.40319719879250776,0.8776315789473684,5.988439100001415
121,6.306247892640888e-05,0.6223915667967362,0.9525,0.4061520218849182,0.8828947368421053,0.8825543161517562,1.0,0.9176470588235294,0.40312989856067455,0.8789473684210526,5.976881200003845
122,5.899764012922409e-05,0.598230057629672,0.9718181818181818,0.40450560011361775,0.8855263157894737,0.8852644891881335,1.0,0.925,0.4031743090403707,0.8802631578947369,6.014152400006424
123,5.5056160955870474e-05,0.62968660289591,0.9576136363636364,0.39856438919117576,0.8802631578947369,0.8803846456439135,1.0,0.9220588235294118,0.4031448354846553,0.881578947368421,5.987103500003286
124,5.1240054717474066e-05,0.6302028583396565,0.9590909090909091,0.40540458371764737,0.8789473684210526,0.8786777397650851,1.0,0.9205882352941176,0.4037530990023362,0.8802631578947369,5.9655225000024075
125,4.755127068455278e-05,0.6273433990912004,0.9579545454545455,0.4341023501596953,0.875,0.8751178895486567,1.0,0.9176470588235294,0.40460976048519737,0.881578947368421,5.954703899995366
126,4.399169309132677e-05,0.6333218972249465,0.9528409090909091,0.40509025109441654,0.881578947368421,0.8816182789010012,1.0,0.9161764705882353,0.406062157216825,0.881578947368421,6.004860799999733
127,4.0563140173249585e-05,0.6255695492571051,0.9580681818181818,0.4030356149924429,0.8789473684210526,0.8784685485991982,1.0,0.9191176470588235,0.4066782901161595,0.8828947368421053,6.012046100004227
128,3.726736323825278e-05,0.6314826627211138,0.9457954545454546,0.42378074275819877,0.8723684210526316,0.872269394191662,1.0,0.9205882352941176,0.40669330829068234,0.8842105263157894,5.995301399998425
129,3.41060457721751e-05,0.616774706623771,0.9677272727272728,0.4245764484531001,0.8736842105263158,0.8731365201284216,1.0,0.9161764705882353,0.40674510786407875,0.881578947368421,6.0265362999998615
130,3.1080802578837415e-05,0.5899613653529774,0.9626136363636364,0.4082068201742674,0.8776315789473684,0.8773169118685411,1.0,0.9147058823529411,0.40711469148334706,0.8802631578947369,5.974600599998666
131,2.8193178955198895e-05,0.6037134439294989,0.9559090909090909,0.40685240155772157,0.881578947368421,0.8813732371789937,1.0,0.9235294117647059,0.4074827492237091,0.8842105263157894,5.977790700002515
132,2.544464990201774e-05,0.6271747077595103,0.9528409090909091,0.4079010815996873,0.875,0.8749373199468014,1.0,0.9205882352941176,0.4079913487559871,0.881578947368421,6.001584899997397
133,2.283661937042025e-05,0.6196513469652696,0.9530681818181819,0.4276710099295566,0.8802631578947369,0.8799145558932793,1.0,0.9235294117647059,0.408033590881448,0.881578947368421,5.973110200000519
134,2.0370419544760518e-05,0.6164656532894481,0.96125,0.4145194596365879,0.881578947368421,0.8814750407357403,1.0,0.9191176470588235,0.40787706908426785,0.881578947368421,6.007446199997503
135,1.804731016213988e-05,0.6069332653825933,0.9678409090909091,0.4122179539580094,0.8828947368421053,0.8827421174627291,1.0,0.9176470588235294,0.40792485318685834,0.8802631578947369,5.9851300999944215
136,1.5868477868931964e-05,0.5794504753026095,0.9718181818181818,0.41900634702883266,0.8776315789473684,0.877441869785347,1.0,0.9161764705882353,0.40800436013623287,0.8776315789473684,6.008776000002399
137,1.3835035614642541e-05,0.5605698515068401,0.9671590909090909,0.4027855314706501,0.8789473684210526,0.8789699845837738,1.0,0.9191176470588235,0.40768440585387383,0.8802631578947369,5.972595499995805
138,1.1948022083414199e-05,0.6175051019408486,0.9519318181818182,0.4081744539110284,0.881578947368421,0.8814546659300788,1.0,0.925,0.40767011203263936,0.881578947368421,5.990654799999902
139,1.0208401163465185e-05,0.5837651063095439,0.9671590909090909,0.4100127361322704,0.8763157894736842,0.8760126419804799,1.0,0.9235294117647059,0.40763630082732755,0.881578947368421,5.994387300001108
140,8.617061454734755e-06,0.5761972399191423,0.9646590909090909,0.4044501056796626,0.8828947368421053,0.8827976116206793,1.0,0.925,0.40740926610796074,0.8802631578947369,5.996870399998443
141,7.1748158149852224e-06,0.6187272264740684,0.9578409090909091,0.41955558281195793,0.8776315789473684,0.87731002261153,1.0,0.9176470588235294,0.40761606285446567,0.881578947368421,5.988434700004291
142,5.882400944593751e-06,0.6187277200005271,0.94875,0.43048770364962125,0.8736842105263158,0.8735246001087054,1.0,0.9191176470588235,0.4082076232684286,0.8802631578947369,5.967947099998128
143,4.740477010244959e-06,0.5958776220408353,0.9598863636363636,0.4227076486537331,0.875,0.8748590955196892,1.0,0.9205882352941176,0.408550383856422,0.881578947368421,5.9819371000048704
144,3.7496273077172435e-06,0.6136122547496449,0.9492045454545455,0.40966395390661137,0.875,0.8750264126871892,1.0,0.9191176470588235,0.4091257186312425,0.8828947368421053,5.985770799998136
145,2.9103579639347222e-06,0.6385339097543197,0.95,0.42918355810014824,0.8802631578947369,0.8800617696929189,1.0,0.9264705882352942,0.4096755990856572,0.8842105263157894,6.058252800001355
146,2.223097678437247e-06,0.6332884142615578,0.9501136363636363,0.4190562207447855,0.8789473684210526,0.878742302841203,1.0,0.9205882352941176,0.4103199202763407,0.8842105263157894,6.0377116999952705
147,1.6881975044002091e-06,0.5795455746217207,0.959659090909091,0.41547506263381556,0.8776315789473684,0.8773961424889632,1.0,0.9191176470588235,0.4103059470653534,0.8828947368421053,5.983530000004976
148,1.3059306693162125e-06,0.5854042209278454,0.9586363636363636,0.40753872425932636,0.8710526315789474,0.8709916566635278,1.0,0.9147058823529411,0.41035855036032826,0.8828947368421053,5.979490199999418
149,1.0764924354303636e-06,0.6228322383490476,0.9470454545454545,0.4195151071799429,0.8789473684210526,0.8788427594874924,1.0,0.9176470588235294,0.4107264474818581,0.881578947368421,5.968900899999426
150,1e-06,0.6332885783368891,0.9557954545454546,0.4141363046671215,0.8776315789473684,0.8773524928248213,1.0,0.9161764705882353,0.41131824694181746,0.881578947368421,5.973713100000168
