epoch,lr,train_loss,train_accuracy,val_loss,val_accuracy,val_macro_f1,val_trial_accuracy,val_k3,ema_loss,ema_accuracy,seconds
1,5.9999999999999995e-05,1.3206990658153188,0.5146590909090909,0.9179973175651148,0.6513157894736842,0.6485923744314557,0.95,0.7220588235294118,1.610756318192733,0.2,14.275053099998331
2,0.00011999999999999999,1.0996212883429093,0.6696590909090909,0.584342979129992,0.8,0.7953981028779069,0.95,0.8470588235294118,1.6180586940363835,0.2,14.065150900001754
3,0.00018,0.9549775860526345,0.7605681818181819,0.49152125841692873,0.8355263157894737,0.8333240518468319,1.0,0.8823529411764706,1.6417262027138158,0.2,14.112359599999763
4,0.00023999999999999998,0.8908197489651767,0.8055681818181818,0.4089848270541743,0.8671052631578947,0.8660027767749655,1.0,0.9279411764705883,1.7019248548306918,0.2,14.058011200002511
5,0.0003,0.8937296308170666,0.8095454545454546,0.3793594354077389,0.9026315789473685,0.9018076757578013,1.0,0.9573529411764706,1.8032888312088815,0.2,14.055850600001577
6,0.00035999999999999997,0.8232792448997498,0.831590909090909,0.37804246293871024,0.8921052631578947,0.8918522698641154,1.0,0.95,1.9792949463191785,0.2,14.111358599999221
7,0.00042,0.7920166776397012,0.8485227272727273,0.36631436567557485,0.8907894736842106,0.891050054303449,1.0,0.9514705882352941,2.173319285166891,0.2,14.049702000000252
8,0.0004799999999999999,0.8303919887542724,0.8470454545454545,0.39983473357401395,0.8657894736842106,0.865416641033067,1.0,0.9176470588235294,2.3373782506114558,0.2,14.057417899999564
9,0.00054,0.8078851808201183,0.850909090909091,0.39336489689977544,0.8986842105263158,0.897705483124901,1.0,0.961764705882353,2.4990459241365133,0.2,14.090307300000859
10,0.0005999999999999998,0.7866020215641368,0.8631818181818182,0.4099341743870785,0.8710526315789474,0.8694376325260158,1.0,0.9426470588235294,2.630028976264753,0.2,14.084824199999275
11,0.0006,0.7824656701087952,0.8747727272727273,0.3653182084623136,0.8921052631578947,0.89114502216562,1.0,0.9367647058823529,2.7521889125045975,0.2,14.076771299998654
12,0.0005999235075645696,0.772406071099368,0.8827272727272727,0.34493195320430553,0.9092105263157895,0.9089177651619409,1.0,0.9647058823529412,2.8550668823091607,0.2,14.067550600000686
13,0.0005996940693306837,0.7669184318455783,0.8732954545454545,0.4154603456196032,0.8671052631578947,0.864596675818804,1.0,0.9191176470588235,2.938970305731422,0.2,14.091086199994606
14,0.0005993118024955998,0.7300669056719,0.8942045454545454,0.33136472200092515,0.9052631578947369,0.9044569960540055,1.0,0.9529411764705882,3.026527163856908,0.2,14.056769899994833
15,0.0005987769023215627,0.7083827913891185,0.8968181818181818,0.3569782062580711,0.8934210526315789,0.8928880744988851,1.0,0.9602941176470589,3.119362922404942,0.2,14.058785999994143
16,0.0005980896420360653,0.7479584069685502,0.8897727272727273,0.4309203304742512,0.8671052631578947,0.8667705204802196,1.0,0.9264705882352942,3.1788799085115134,0.2,14.060579199998756
17,0.0005972503726922827,0.6824924291263927,0.9204545454545454,0.3701821378971401,0.8868421052631579,0.8866111355509194,1.0,0.9470588235294117,3.2054616818302555,0.2,14.051997499998834
18,0.0005962595229897549,0.7400959155776284,0.9001136363636364,0.6012022518013653,0.7618421052631579,0.7642488683502009,0.85,0.7794117647058824,3.205659886410362,0.2,14.07692600000155
19,0.0005951175990554061,0.7175764335285534,0.9060227272727273,0.3607276521230999,0.9026315789473685,0.9021455830744312,1.0,0.9661764705882353,3.1887650336089886,0.2,14.05430239999987
20,0.0005938251841850148,0.6992026290026578,0.9205681818181818,0.49003986433932656,0.8263157894736842,0.8270696062277871,1.0,0.8867647058823529,3.203037944279219,0.2,14.096150299999863
21,0.0005923829385452652,0.7128293975916776,0.9071590909090909,0.45876222911633946,0.8473684210526315,0.846123388740671,0.975,0.8970588235294118,3.271859902143478,0.2,14.044081400003051
22,0.0005907915988365347,0.7037520384788514,0.9211363636363636,0.32355290463096215,0.9131578947368421,0.9132343146690562,1.0,0.9647058823529412,3.2543778259503213,0.2,14.050186000000394
23,0.0005890519779165858,0.7350509589368647,0.9034090909090909,0.33741979002952577,0.9026315789473685,0.9020339984239649,1.0,0.9573529411764706,3.203666606388594,0.2,14.07631609999953
24,0.0005871649643853574,0.6556353852965615,0.9296590909090909,0.3604871257355339,0.9039473684210526,0.90419689916684,1.0,0.9529411764705882,3.1553153583877966,0.2,14.099868899997091
25,0.000585131522131068,0.7097480221228166,0.9152272727272728,0.4780632222953596,0.8473684210526315,0.8458431040937701,1.0,0.8897058823529411,3.080076357565428,0.20657894736842106,14.053525800001808
26,0.0005829526898378601,0.6547715197909962,0.9395454545454546,0.4183563637106042,0.868421052631579,0.868842830440558,0.975,0.8970588235294118,3.0620965251797125,0.21710526315789475,14.077681399998255
27,0.0005806295804552395,0.6674770658666437,0.9296590909090909,0.39066816568374635,0.9052631578947369,0.9052583646044603,1.0,0.9632352941176471,3.0189723770869406,0.26052631578947366,14.088027599995257
28,0.0005781633806295796,0.6773827279697765,0.9254545454545454,0.39084894264999187,0.9039473684210526,0.9032208181885654,1.0,0.9455882352941176,2.964721759996916,0.25526315789473686,14.056971400001203
29,0.0005755553500979822,0.6632417078451677,0.9340909090909091,0.4472709254214638,0.8486842105263158,0.8451391836596303,1.0,0.913235294117647,2.917869647239384,0.25526315789473686,14.045031099994958
30,0.0005728068210448012,0.6595052138241855,0.94125,0.38233835226611085,0.8828947368421053,0.8840805571444589,1.0,0.9338235294117647,2.8598829975253657,0.2565789473684211,14.03375049999886
31,0.0005699191974211625,0.6666740846633911,0.9389772727272727,0.455519626956237,0.868421052631579,0.8687238816210936,0.975,0.9323529411764706,2.777939325100497,0.26973684210526316,14.054642899995088
32,0.0005668939542278249,0.6729330151731318,0.9315909090909091,0.4022413156534496,0.8842105263157894,0.8835685535820519,0.975,0.9191176470588235,2.636834797106291,0.2776315789473684,14.082522600001539
33,0.0005637326367617472,0.6411073459278454,0.9364772727272728,0.4027646121225859,0.8789473684210526,0.8792011817319552,1.0,0.9235294117647059,2.43729404634551,0.32894736842105265,14.063564800002496
34,0.0005604368598267504,0.6507236775484952,0.9393181818181818,0.35786526391380713,0.8947368421052632,0.8934217285077981,1.0,0.9470588235294117,2.1527634470086348,0.35526315789473684,14.034276200000022
35,0.0005570083069086733,0.6632292545925487,0.9329545454545455,0.3529164759736312,0.9013157894736842,0.9008213718375881,1.0,0.961764705882353,1.8250294735557155,0.4052631578947368,14.065204099999391
36,0.0005534487293154471,0.6841976125673814,0.9268181818181818,0.4340546054275412,0.8697368421052631,0.8698549212147524,1.0,0.9176470588235294,1.4879888432590584,0.4697368421052632,14.073804699997709
37,0.0005497599452825259,0.6393494513901797,0.9371590909090909,0.3728260438693197,0.8921052631578947,0.8907950744708296,1.0,0.9455882352941176,1.2071466543172535,0.5513157894736842,14.043598900003417
38,0.0005459438390441295,0.6335589612614024,0.9352272727272727,0.37111599555141045,0.8973684210526316,0.8970509819789065,1.0,0.9455882352941176,0.9692559096374009,0.6381578947368421,14.050674400001299
39,0.0005420023598707758,0.6466045917164196,0.9393181818181818,0.3276019855549461,0.9092105263157895,0.9088872369232505,1.0,0.9558823529411765,0.772462061518117,0.7171052631578947,14.06127999999444
40,0.0005379375210735911,0.6716179975596341,0.9343181818181818,0.4198335751106865,0.8736842105263158,0.8735882884685546,1.0,0.9220588235294118,0.6344785188373766,0.7684210526315789,14.071569300002011
41,0.0005337513989759092,0.6214968752861023,0.9501136363636363,0.4287445071496462,0.8868421052631579,0.8850257969248517,1.0,0.9338235294117647,0.5426231788961511,0.8131578947368421,14.057799199996225
42,0.0005294461318526833,0.6355950407548384,0.9480681818181819,0.3917781218102104,0.8881578947368421,0.8872537406651352,1.0,0.9397058823529412,0.4664872822008635,0.8381578947368421,14.046479600001476
43,0.0005250239188382536,0.6243360090255737,0.949659090909091,0.33285992223965494,0.9131578947368421,0.9121802677635642,1.0,0.9588235294117647,0.42406311050841683,0.8565789473684211,14.041135999999824
44,0.0005204870188030272,0.6040454722534526,0.954659090909091,0.42633859750471614,0.8618421052631579,0.8642472585261165,1.0,0.9323529411764706,0.392918315843532,0.8723684210526316,14.096640299998398
45,0.0005158377491996452,0.6459235830740495,0.9420454545454545,0.41950069226716696,0.8802631578947369,0.8800705326304822,1.0,0.9411764705882353,0.3662775144765252,0.8868421052631579,14.161766199998965
46,0.0005110784848792257,0.6510924018513072,0.9464772727272728,0.416253000027255,0.8671052631578947,0.8684059476863245,1.0,0.9117647058823529,0.3517107513390089,0.8947368421052632,14.142042300001776
47,0.0005062116568782877,0.6479741079157049,0.9473863636363636,0.380910892549314,0.8828947368421053,0.8817107249066056,1.0,0.9367647058823529,0.34200082138965004,0.8986842105263158,14.047265200002585
48,0.0005012397511769754,0.6095859622955322,0.9554545454545454,0.399983295955156,0.8776315789473684,0.8778502880452035,1.0,0.9279411764705883,0.33251370913104006,0.9052631578947369,14.076227599995036
49,0.0004961653074292177,0.6304644742879001,0.9476136363636364,0.38601291022802653,0.8960526315789473,0.8971548710632694,1.0,0.9691176470588235,0.32633542575334246,0.906578947368421,14.06148039999971
50,0.0004909909176654702,0.637755069732666,0.9481818181818182,0.38280093544407895,0.8828947368421053,0.883452307436643,1.0,0.9308823529411765,0.318181249028758,0.9131578947368421,14.122077200001513
51,0.00048571922496870357,0.6207894027233124,0.9504545454545454,0.3647898633229105,0.9013157894736842,0.9012741600448189,1.0,0.9485294117647058,0.3137315844234667,0.9184210526315789,14.055374499999743
52,0.00048035292212431514,0.6529567145217549,0.9388636363636363,0.36744959025006546,0.8947368421052632,0.8945729673994121,1.0,0.9411764705882353,0.3124956626641123,0.9171052631578948,14.043267499997455
53,0.0004748947502446508,0.5961156728050926,0.9695454545454546,0.31949563308766016,0.9263157894736842,0.926217328871944,1.0,0.9647058823529412,0.30824781750377855,0.9197368421052632,14.074154900001304
54,0.00046934749736884306,0.6156955964998766,0.9542045454545455,0.401233150457081,0.8710526315789474,0.8714426627415058,1.0,0.9264705882352942,0.30542626725999933,0.925,14.083009799993306
55,0.0004637139970386777,0.6293214722113176,0.9534090909090909,0.3713225113718133,0.9052631578947369,0.9050897817193446,1.0,0.9514705882352941,0.3041833582677339,0.9223684210526316,14.089314099997864
56,0.000457997126851218,0.6167597278681668,0.95875,0.31392786126387745,0.9078947368421053,0.9080072371843677,1.0,0.9661764705882353,0.30176841397034493,0.9263157894736842,14.07046629999968
57,0.00045219980698892607,0.6038403348489241,0.9514772727272728,0.3716873968902387,0.8986842105263158,0.8985890231894962,1.0,0.9411764705882353,0.2988373997964357,0.9315789473684211,14.060311300003377
58,0.0004463249987280305,0.6364755112474615,0.9443181818181818,0.36552907134357254,0.9,0.8982539659117286,1.0,0.9485294117647058,0.29742066295523395,0.9315789473684211,14.071454099997936
59,0.000440375702925904,0.6065955630215731,0.9498863636363636,0.38118928608141445,0.8868421052631579,0.8843046497278051,1.0,0.9323529411764706,0.2970381877924267,0.9302631578947368,14.085861999999906
60,0.0004343549584882226,0.6265115284919739,0.9511363636363637,0.5083296923260939,0.85,0.8493537649051296,0.925,0.8852941176470588,0.29775535181949014,0.9289473684210526,14.103201899997657
61,0.00042826584081669025,0.6576579969579524,0.9434090909090909,0.42473152530820746,0.8855263157894737,0.8855098332683962,1.0,0.9602941176470589,0.3010462312321914,0.9289473684210526,14.05017190000217
62,0.00042211146023812037,0.602589038068598,0.9451136363636363,0.42180384585731906,0.8763157894736842,0.8757986136843865,1.0,0.9338235294117647,0.30183145592087196,0.9315789473684211,14.041450899996562
63,0.0004158949604156783,0.6269193206050179,0.9485227272727272,0.38461496516277915,0.8802631578947369,0.8791478749463921,1.0,0.9485294117647058,0.30265518944514425,0.9302631578947368,14.050051000005624
64,0.0004096195167430953,0.6374391143972223,0.9526136363636364,0.37793715596199035,0.9131578947368421,0.9130294733093232,1.0,0.9573529411764706,0.30400715862449845,0.925,14.088178199999675
65,0.0004032883347226749,0.627763390974565,0.959659090909091,0.4474581254156012,0.8644736842105263,0.8630111428175293,1.0,0.9073529411764706,0.3034941027038976,0.9289473684210526,14.072962400001416
66,0.0003969046483279189,0.5888404447382146,0.9575,0.3839800384483839,0.8776315789473684,0.8783651105517821,1.0,0.9382352941176471,0.30190228976701433,0.9276315789473685,14.06759669999883
67,0.0003904717183516109,0.6045143012567,0.9592045454545455,0.35862374619433757,0.9013157894736842,0.9007702501008505,1.0,0.9558823529411765,0.3004509367440876,0.9289473684210526,14.099129000001994
68,0.0003839928307402005,0.6298699962009083,0.9559090909090909,0.42761037749679465,0.8723684210526316,0.873736045826706,1.0,0.9117647058823529,0.3006848379185325,0.9263157894736842,14.09370140000101
69,0.00037747129491533916,0.5836988764459436,0.9665909090909091,0.36319736587373835,0.9013157894736842,0.9010119322900476,1.0,0.9470588235294117,0.30054670697764346,0.9276315789473685,14.05946910000057
70,0.0003709104420834241,0.6560725407166914,0.9478409090909091,0.3697338301884501,0.8842105263157894,0.8833816360574968,1.0,0.9411764705882353,0.3025281408899709,0.9289473684210526,14.066593599993212
71,0.00036431362353401533,0.63060279304331,0.9517045454545454,0.35038717138139824,0.8934210526315789,0.8931970922238056,1.0,0.95,0.3042577236890793,0.9276315789473685,14.073535399998946
72,0.0003576842089279937,0.5987006133252925,0.96,0.42249603302855243,0.8736842105263158,0.8734471800166705,1.0,0.9264705882352942,0.30527042589689557,0.9263157894736842,14.051830100004736
73,0.0003510255845763356,0.6251828807050531,0.9548863636363636,0.3711570746020267,0.8960526315789473,0.8955529331184785,1.0,0.9558823529411765,0.306023246520444,0.9197368421052632,14.08615909999935
74,0.0003443411517103819,0.6151569098776037,0.9572727272727273,0.31556553119107295,0.9171052631578948,0.9175772639222254,1.0,0.9735294117647059,0.3068677001877835,0.9197368421052632,14.06755880000128
75,0.0003376343247444856,0.6346191525459289,0.9463636363636364,0.371733977606422,0.8973684210526316,0.8971898674671704,1.0,0.95,0.3069083769070475,0.9210526315789473,14.038917799996852
76,0.0003309085295319264,0.5726866029609333,0.9656818181818182,0.3749464337763033,0.9039473684210526,0.9033449710756838,1.0,0.95,0.30601324768442856,0.9236842105263158,14.053244200003974
77,0.0003241672016149815,0.6120966323939236,0.9682954545454545,0.36569984884638534,0.8960526315789473,0.8955617349167868,1.0,0.9588235294117647,0.3073193195619081,0.9197368421052632,14.09216860000015
78,0.00031741378447004763,0.600463475747542,0.9601136363636363,0.38552920645789096,0.8855263157894737,0.8846432452174213,1.0,0.9470588235294117,0.3078120987666281,0.9184210526315789,14.066761499998393
79,0.00031065172774871004,0.6124160783941095,0.9623863636363637,0.3901810495476974,0.8881578947368421,0.8876789912694669,1.0,0.9338235294117647,0.3081774264574051,0.9210526315789473,14.094392500002868
80,0.00030388448551565744,0.6102048830552534,0.9560227272727273,0.36347254734290274,0.8868421052631579,0.8863578328204902,1.0,0.9514705882352941,0.3086026645020435,0.9223684210526316,14.047062499994354
81,0.0002971155144843426,0.5984777914394032,0.9642045454545455,0.3838014304637909,0.8776315789473684,0.8776008246957755,1.0,0.9352941176470588,0.3127387597372657,0.9197368421052632,14.071867999999085
82,0.0002903482722512899,0.6326867732134732,0.9601136363636363,0.36949350441757,0.9,0.8997878982074088,1.0,0.9544117647058824,0.31613721329914896,0.9184210526315789,14.097468200001458
83,0.0002835862155299524,0.6028860956972295,0.9610227272727273,0.3605084058485533,0.8986842105263158,0.89788056192208,1.0,0.9588235294117647,0.3158417549572493,0.9210526315789473,14.09263849999843
84,0.00027683279838501855,0.5951495377583937,0.9753409090909091,0.3676357066945026,0.9,0.8996758918017825,1.0,0.9529411764705882,0.3148911320849469,0.9210526315789473,14.069441300001927
85,0.00027009147046807365,0.601012850783088,0.9563636363636364,0.38316184627382377,0.9052631578947369,0.9044110905494769,1.0,0.9558823529411765,0.3154211742313285,0.9210526315789473,14.075121099995158
86,0.0002633656752555145,0.5776115604964169,0.9675,0.3149676678996337,0.9157894736842105,0.9158382802822531,1.0,0.9647058823529412,0.3102088528244119,0.9236842105263158,14.103406499998528
87,0.00025665884828961807,0.5714734875072133,0.97625,0.3489287134848143,0.9,0.8993021675600836,1.0,0.9514705882352941,0.3094738608912418,0.9223684210526316,14.114859599998454
88,0.00024997441542366436,0.6140942814133384,0.9628409090909091,0.378485106951312,0.8973684210526316,0.8973310305093982,1.0,0.9455882352941176,0.3138251858322244,0.9184210526315789,14.064375000001746
89,0.00024331579107200632,0.6070026016235351,0.9540909090909091,0.36923330300732665,0.8921052631578947,0.8918099543952712,1.0,0.9544117647058824,0.3160983438554563,0.9171052631578948,14.053238800006511
90,0.0002366863764659847,0.6049424853108146,0.9605681818181818,0.3915270752028415,0.8802631578947369,0.8796570525976553,1.0,0.9441176470588235,0.318392381856316,0.9184210526315789,14.11282989999745
91,0.0002300895579165759,0.575012732852589,0.97,0.3635326586271587,0.9,0.8996097275920059,1.0,0.9514705882352941,0.3197158816613649,0.9184210526315789,16.891706900001736
92,0.0002235287050846607,0.5917892096259377,0.9656818181818182,0.36641251429131155,0.9013157894736842,0.9008927169196299,1.0,0.9602941176470589,0.3199556855778945,0.9171052631578948,14.33590560000448
93,0.00021700716925979942,0.6076323436607014,0.9572727272727273,0.4208280059852098,0.8710526315789474,0.8704918236462733,1.0,0.9308823529411765,0.3231430050573851,0.9144736842105263,14.162268499996571
94,0.00021052828164838913,0.6327799441597678,0.9510227272727273,0.3862902194261551,0.8907894736842106,0.8906966192620814,1.0,0.9441176470588235,0.32705953529006554,0.9105263157894737,14.121059900004184
95,0.00020409535167208103,0.6482831380584023,0.955,0.400053807622508,0.8842105263157894,0.8838266160312122,1.0,0.9308823529411765,0.3294640787337956,0.9105263157894737,14.106826700000966
96,0.00019771166527732506,0.6029943291707472,0.9631818181818181,0.3700669938012173,0.9,0.8995227104010561,1.0,0.9544117647058824,0.32925334698275516,0.9078947368421053,14.084372599994822
97,0.00019138048325690465,0.6088264497843656,0.9630681818181818,0.41249847412109375,0.868421052631579,0.8682863777807175,1.0,0.9367647058823529,0.3286755212043461,0.9105263157894737,14.099791300002835
98,0.00018510503958432174,0.6065946764295751,0.9634090909090909,0.3548285239621213,0.9,0.8989688879163508,1.0,0.9485294117647058,0.3290358697113238,0.9131578947368421,14.078510600003938
99,0.0001788885397618797,0.5879581980271773,0.9648863636363636,0.3882013416603992,0.8828947368421053,0.8831026215742643,1.0,0.9470588235294117,0.3278393389363038,0.9157894736842105,14.14508190000197
100,0.00017273415918330973,0.5873109445788643,0.9734090909090909,0.35033938665139047,0.9,0.9002178576312504,1.0,0.9441176470588235,0.33073112101931323,0.9105263157894737,14.088571899999806
101,0.00016664504151177735,0.5637888357856057,0.9735227272727273,0.37408371065792284,0.8973684210526316,0.8966590677775057,1.0,0.9558823529411765,0.33007266395970397,0.9144736842105263,14.075132400001166
102,0.00016062429707409598,0.5979580750248649,0.9663636363636363,0.3452401416866403,0.9026315789473685,0.9020808268240712,1.0,0.9573529411764706,0.33102264451353175,0.9131578947368421,14.025860499998089
103,0.00015467500127196946,0.5642581070553173,0.9667045454545454,0.4442936149082686,0.8565789473684211,0.8564516814652589,1.0,0.9102941176470588,0.3332606265419408,0.906578947368421,14.081346899998607
104,0.0001488001930110739,0.5987768867882816,0.9753409090909091,0.38719634978394757,0.8921052631578947,0.8910726767096072,1.0,0.9455882352941176,0.3396925272125947,0.9052631578947369,14.106852299999446
105,0.00014300287314878202,0.5575555443763733,0.9772727272727273,0.39570987052039097,0.8855263157894737,0.8850228509959226,1.0,0.9397058823529412,0.3417578443100578,0.9039473684210526,14.062862300001143
106,0.00013728600296132235,0.5615606169267134,0.9676136363636364,0.429775680209461,0.8618421052631579,0.8609591844327864,1.0,0.9294117647058824,0.344314895962414,0.9039473684210526,14.083885500003817
107,0.00013165250263115694,0.5872681027108972,0.9690909090909091,0.4213110674368708,0.8736842105263158,0.8726197275913508,1.0,0.9323529411764706,0.3492239701120477,0.9039473684210526,14.059391699993284
108,0.0001261052497553492,0.5796925176273693,0.9765909090909091,0.3986704374614515,0.8723684210526316,0.8717001538012588,1.0,0.9220588235294118,0.35204267015582635,0.9013157894736842,14.100231399999757
109,0.0001206470778756849,0.5792252766002308,0.9675,0.39741323307940835,0.8763157894736842,0.8755770640397487,1.0,0.9382352941176471,0.35360549155034515,0.8986842105263158,14.137381300002744
110,0.0001152807750312964,0.5697054797952825,0.9726136363636364,0.3576325269121873,0.8986842105263158,0.8981819247936007,1.0,0.9514705882352941,0.3540694385766983,0.8960526315789473,14.097806599995238
111,0.00011000908233452982,0.5630574122342197,0.9772727272727273,0.3672101472553454,0.8881578947368421,0.8872948838599628,1.0,0.9441176470588235,0.3533742802707773,0.8960526315789473,14.065688199996657
112,0.00010483469257078224,0.5626109222932295,0.9781818181818182,0.35666632432686657,0.8986842105263158,0.8982455279325066,1.0,0.9544117647058824,0.35229556387976596,0.8973684210526316,14.092637900001137
113,9.976024882302456e-05,0.6057813570716164,0.9598863636363636,0.3664394182594199,0.9,0.8995952293355058,1.0,0.9455882352941176,0.35395307070330567,0.8947368421052632,14.097379799997725
114,9.478834312171236e-05,0.6155635434930975,0.9618181818181818,0.3575676375313809,0.9,0.8993610176803877,1.0,0.9588235294117647,0.3537205751004972,0.8986842105263158,14.090694200000144
115,8.992151512077429e-05,0.6057087622989308,0.9725,0.37347106996335483,0.8973684210526316,0.8967427658989374,1.0,0.9485294117647058,0.3533538823065005,0.9,14.07810690000042
116,8.516225080035476e-05,0.5982463126832789,0.9553409090909091,0.3693544089794159,0.8894736842105263,0.8890378664004274,1.0,0.9470588235294117,0.3558476493546837,0.9026315789473685,14.095811899998807
117,8.051298119697266e-05,0.6085655505006964,0.9685227272727273,0.4048783142315714,0.8802631578947369,0.879759963110003,1.0,0.9411764705882353,0.35633231683781275,0.9013157894736842,14.089297200000146
118,7.597608116174637e-05,0.6027670279416171,0.9681818181818181,0.37100476685323214,0.9026315789473685,0.9024162978804021,1.0,0.95,0.35819943076685856,0.9,14.065619299995888
119,7.155386814731662e-05,0.6131491524522955,0.9540909090909091,0.36213708221912383,0.8894736842105263,0.8888478431920847,1.0,0.9411764705882353,0.359991455078125,0.9,14.116750000001048
120,6.724860102409081e-05,0.5750512543591586,0.9711363636363637,0.38866585210749977,0.8828947368421053,0.8826510541295896,1.0,0.9411764705882353,0.36122749698789497,0.9,14.079751500001294
121,6.306247892640888e-05,0.5947524970228022,0.9763636363636363,0.4134193023568706,0.875,0.8748983210768783,1.0,0.9308823529411765,0.3636889010667801,0.8960526315789473,14.085478599998169
122,5.899764012922409e-05,0.538226479400288,0.9765909090909091,0.39870388617641045,0.8802631578947369,0.8799838782051543,1.0,0.9367647058823529,0.3646529346704483,0.8947368421052632,14.089921299993875
123,5.5056160955870474e-05,0.6091405513069846,0.9628409090909091,0.40767316316303454,0.8842105263157894,0.8845618391485285,1.0,0.9338235294117647,0.3669580559981497,0.8947368421052632,14.1122217000011
124,5.1240054717474066e-05,0.59786429123445,0.9736363636363636,0.42792165655838815,0.8855263157894737,0.8856154119223539,1.0,0.9279411764705883,0.36832034415320347,0.8973684210526316,14.085211899997375
125,4.755127068455278e-05,0.5988640202175487,0.9631818181818181,0.38934133382220015,0.8947368421052632,0.8943742076250671,1.0,0.9426470588235294,0.3694559202382439,0.8973684210526316,14.095379099999263
126,4.399169309132677e-05,0.5774977536634965,0.9743181818181819,0.40814297340418165,0.8921052631578947,0.8919943787143954,1.0,0.9411764705882353,0.37167527032525915,0.8973684210526316,14.092754799996328
127,4.0563140173249585e-05,0.5749220728874207,0.9730681818181818,0.4235736244603207,0.8789473684210526,0.8795162262183744,1.0,0.9338235294117647,0.3747347376848522,0.8960526315789473,14.14905490000092
128,3.726736323825278e-05,0.568705956068906,0.975909090909091,0.38703653467328925,0.8921052631578947,0.8918689076351342,1.0,0.9397058823529412,0.37608176783511515,0.8986842105263158,14.065815599999041
129,3.41060457721751e-05,0.5712694220109419,0.9767045454545454,0.3846996109736593,0.8947368421052632,0.8947608385148638,1.0,0.9470588235294117,0.3752931292119779,0.8986842105263158,14.068009299997357
130,3.1080802578837415e-05,0.5846552222425287,0.9715909090909091,0.3847078025341034,0.8934210526315789,0.893657015933117,1.0,0.9426470588235294,0.37526100513182187,0.8973684210526316,14.044917999999598
131,2.8193178955198895e-05,0.5932419737902555,0.9646590909090909,0.40729233606865534,0.8881578947368421,0.8879053729924434,1.0,0.9426470588235294,0.37667782447840037,0.8973684210526316,14.13745060000656
132,2.544464990201774e-05,0.6019161207025702,0.9704545454545455,0.3993465219673358,0.8921052631578947,0.891695868678233,1.0,0.9441176470588235,0.3788175084088978,0.8960526315789473,14.088499099998444
133,2.283661937042025e-05,0.5749520337581635,0.9685227272727273,0.3866159541042227,0.9013157894736842,0.901060756194083,1.0,0.9426470588235294,0.37974186931785786,0.8960526315789473,14.042860000001383
134,2.0370419544760518e-05,0.5654740324887363,0.9748863636363636,0.37450272456595773,0.9052631578947369,0.9050383777976633,1.0,0.9485294117647058,0.3808350410900618,0.8960526315789473,14.069453100004466
135,1.804731016213988e-05,0.5728417254577983,0.982840909090909,0.4023497735199175,0.8855263157894737,0.8851807732287057,1.0,0.9411764705882353,0.38224190191218727,0.8947368421052632,14.069648000004236
136,1.5868477868931964e-05,0.5690624859116294,0.9747727272727272,0.404917667100304,0.8828947368421053,0.8823740508673138,1.0,0.9382352941176471,0.38385796766532093,0.8960526315789473,14.08253010000044
137,1.3835035614642541e-05,0.5588525019992482,0.9857954545454546,0.4103484309033344,0.8776315789473684,0.8773556441291795,1.0,0.9323529411764706,0.384582519060687,0.8960526315789473,14.06110869999975
138,1.1948022083414199e-05,0.6041554936495694,0.9577272727272728,0.4112735953770186,0.8842105263157894,0.8840370164290006,1.0,0.9338235294117647,0.3852179279452876,0.8947368421052632,14.100707599995076
139,1.0208401163465185e-05,0.5538732508095828,0.9794318181818182,0.3883421242237091,0.8947368421052632,0.8942844363981927,1.0,0.9470588235294117,0.3838590123151478,0.8960526315789473,14.069269700004952
140,8.617061454734755e-06,0.5943852559002963,0.9714772727272727,0.375323245086168,0.8973684210526316,0.8970109434035617,1.0,0.9514705882352941,0.38345449331559633,0.8947368421052632,14.111149500000465
141,7.1748158149852224e-06,0.5662568869374015,0.9784090909090909,0.3819389747945886,0.8947368421052632,0.8944374279589352,1.0,0.9529411764705882,0.3825502899132277,0.8934210526315789,14.080378899998323
142,5.882400944593751e-06,0.5845292652737011,0.9694318181818182,0.36727624174795653,0.9026315789473685,0.9024120295299998,1.0,0.9485294117647058,0.38255430491347064,0.8947368421052632,14.08090970000194
143,4.740477010244959e-06,0.5877268611301075,0.975,0.3823261464896955,0.8934210526315789,0.8930391638997529,1.0,0.9514705882352941,0.38282478702695744,0.8960526315789473,14.070038899997598
144,3.7496273077172435e-06,0.5650064087997784,0.9763636363636363,0.37746019959449767,0.8960526315789473,0.8956404624419287,1.0,0.9455882352941176,0.3824154507172735,0.8973684210526316,14.141443299995444
145,2.9103579639347222e-06,0.5788881934772838,0.9746590909090909,0.4009657210425327,0.8881578947368421,0.8877185462462741,1.0,0.9352941176470588,0.3824856409901067,0.8960526315789473,14.078838800000085
146,2.223097678437247e-06,0.594960150718689,0.975,0.37919849627896357,0.8973684210526316,0.8969047475569216,1.0,0.9514705882352941,0.3828392435061304,0.8960526315789473,14.067171700000472
147,1.6881975044002091e-06,0.6112315292791887,0.96875,0.40825781633979397,0.8894736842105263,0.8888527906569854,1.0,0.95,0.3833269622765089,0.8960526315789473,14.07795410000108
148,1.3059306693162125e-06,0.5584715604782104,0.9801136363636364,0.38667329471362266,0.8921052631578947,0.8915981959307093,1.0,0.9411764705882353,0.382828079556164,0.8960526315789473,14.091256100000464
149,1.0764924354303636e-06,0.5502309474078092,0.9754545454545455,0.38239384748433763,0.8934210526315789,0.8930968395743222,1.0,0.9470588235294117,0.38213541162641423,0.8960526315789473,14.090746599998965
150,1e-06,0.5977483037385074,0.9705681818181818,0.37941581261785406,0.8934210526315789,0.8930103844606994,1.0,0.9485294117647058,0.38267388579092526,0.8960526315789473,14.106994699999632
