epoch,lr,train_loss,train_accuracy,val_loss,val_accuracy,val_macro_f1,val_trial_accuracy,val_k3,ema_loss,ema_accuracy,seconds
1,5.9999999999999995e-05,1.4457178636030716,0.43011363636363636,1.1274081368195383,0.5328947368421053,0.47692713207636067,0.625,0.5647058823529412,1.6091732602370412,0.19342105263157894,6.200038699993456
2,0.00011999999999999999,1.2345540562543003,0.5622727272727273,0.9539051256681743,0.6223684210526316,0.5938339424409549,0.8,0.6544117647058824,1.6102937397203947,0.19078947368421054,6.091072099996381
3,0.00018,1.1451918476278131,0.6343181818181818,0.7652593173478779,0.7118421052631579,0.6903120457349057,0.7,0.7323529411764705,1.6158884161397031,0.2,6.083181100002548
4,0.00023999999999999998,0.9962463374571366,0.7331818181818182,0.49548002606944036,0.8421052631578947,0.8394739835473592,1.0,0.9029411764705882,1.6283858424738833,0.2,6.074791200000618
5,0.0003,0.9476033652912487,0.7755681818181818,0.5454312073557,0.8223684210526315,0.8181264723396968,0.975,0.85,1.6529258326480263,0.2,6.073351400002139
6,0.00035999999999999997,0.9177547324787486,0.8019318181818181,0.4457116158385026,0.875,0.8734892911873093,1.0,0.9294117647058824,1.6940635267056916,0.2,6.074884699999529
7,0.00042,0.8776602450284091,0.8153409090909091,0.42597744402132537,0.8723684210526316,0.8714036803014373,0.975,0.9205882352941176,1.7462338133862143,0.2,6.057376500000828
8,0.0004799999999999999,0.848205246925354,0.8281818181818181,0.46923561158933136,0.8447368421052631,0.8389861653510515,0.975,0.8911764705882353,1.816281613550688,0.2,6.08024640000076
9,0.00054,0.8656483968821439,0.8214772727272728,0.5292768381143871,0.8039473684210526,0.8095009745313746,0.975,0.8308823529411765,1.9066065750624004,0.2,6.069969399999536
10,0.0005999999999999998,0.8823785595460372,0.8219318181818182,0.3914503806515744,0.9,0.8997590725459099,1.0,0.95,2.0041458920428625,0.2,6.082231100001081
11,0.0006,0.8173185454715381,0.8543181818181819,0.4479279963593734,0.8657894736842106,0.8623813499748207,1.0,0.8941176470588236,2.119420748007925,0.2,6.068784700000833
12,0.0005999235075645696,0.8154043412208557,0.8493181818181819,0.3352254757755681,0.9013157894736842,0.9007398849015942,1.0,0.9602941176470589,2.2418572651712516,0.2,6.038691000001563
13,0.0005996940693306837,0.8146574787660078,0.8565909090909091,0.42610300904826115,0.85,0.8512358840577571,1.0,0.9382352941176471,2.374791837993421,0.2,6.095416600001045
14,0.0005993118024955998,0.7759594587846236,0.8670454545454546,0.3918381546673022,0.8921052631578947,0.892802941641682,1.0,0.9426470588235294,2.470807849106036,0.2,6.085631199995987
15,0.0005987769023215627,0.7805877956477079,0.8671590909090909,0.33081257562888294,0.906578947368421,0.9055868148058425,1.0,0.9661764705882353,2.5297787308692934,0.19342105263157894,6.070131099993887
16,0.0005980896420360653,0.7671158404783769,0.8613636363636363,0.4632935778090828,0.8526315789473684,0.8534594447255401,1.0,0.9191176470588235,2.6466835442342256,0.21052631578947367,6.074285200003942
17,0.0005972503726922827,0.7403055518323725,0.8776136363636363,0.363109227544383,0.8934210526315789,0.8920029239303421,1.0,0.9455882352941176,2.737764699208109,0.21710526315789475,6.0637320000023465
18,0.0005962595229897549,0.758209651816975,0.8722727272727273,0.37702544362921464,0.8960526315789473,0.8954872614331016,1.0,0.9514705882352941,2.8046714399990282,0.2026315789473684,6.079785100002482
19,0.0005951175990554061,0.7508999365026301,0.8788636363636364,0.3412800233615072,0.8894736842105263,0.889160190117207,1.0,0.9544117647058824,2.889831544851002,0.20394736842105263,6.055425499995181
20,0.0005938251841850148,0.7385208890654824,0.8827272727272727,0.36069112984757673,0.9,0.8990082934583581,1.0,0.9308823529411765,2.9737033238536434,0.2,6.053705900005298
21,0.0005923829385452652,0.740059307271784,0.8886363636363637,0.38024133318348935,0.8960526315789473,0.8939538204875029,1.0,0.9426470588235294,3.1601654057440003,0.2,6.090804300001764
22,0.0005907915988365347,0.7153640721061013,0.9057954545454545,0.32296142609495865,0.906578947368421,0.9061075639772141,1.0,0.9529411764705882,3.2855330616235734,0.2,6.097176399998716
23,0.0005890519779165858,0.7454434737292203,0.8823863636363637,0.3771107218767467,0.8881578947368421,0.8886502047970131,1.0,0.925,3.3863091317446607,0.2,6.091563299996778
24,0.0005871649643853574,0.7263854406096718,0.8963636363636364,0.322968211456349,0.9052631578947369,0.9062874190397727,1.0,0.9426470588235294,3.4633151404951747,0.2,6.085516999999527
25,0.000585131522131068,0.7341764972426674,0.8938636363636364,0.4131622115248128,0.8644736842105263,0.8668651315284099,1.0,0.9073529411764706,3.4900463303453044,0.2,6.049326599997585
26,0.0005829526898378601,0.6984069390730424,0.91,0.31403768407671073,0.9131578947368421,0.9126507157289812,1.0,0.9588235294117647,3.478572443990331,0.2,6.0784483999959775
27,0.0005806295804552395,0.7150587023388256,0.9068181818181819,0.35816859242163207,0.8986842105263158,0.8997151458650018,1.0,0.9573529411764706,3.406170815150989,0.2,6.080603599999449
28,0.0005781633806295796,0.7394484134153886,0.8931818181818182,0.34211809195970233,0.9,0.8996952836295075,1.0,0.95,3.2702302229247597,0.2,6.08852289999777
29,0.0005755553500979822,0.7000986344164069,0.9048863636363637,0.39235872061629046,0.8842105263157894,0.8837646318982779,1.0,0.9382352941176471,3.110304019404085,0.20394736842105263,6.117313199996715
30,0.0005728068210448012,0.6840765426375649,0.9207954545454545,0.3752135835195843,0.8973684210526316,0.8965045294342433,1.0,0.9602941176470589,2.904094936894743,0.21842105263157896,6.058135200000834
31,0.0005699191974211625,0.6796287482435053,0.923409090909091,0.330816871555228,0.9,0.9000940969345566,1.0,0.9470588235294117,2.665073595548931,0.23421052631578948,6.081974300002912
32,0.0005668939542278249,0.7169365061413158,0.9103409090909091,0.36855103248044063,0.8986842105263158,0.8983747670946519,1.0,0.95,2.4099318652560835,0.26052631578947366,6.09873360000347
33,0.0005637326367617472,0.6875481820106506,0.9220454545454545,0.3350879076280092,0.9118421052631579,0.9116121216768425,1.0,0.9632352941176471,2.0963454798648233,0.29342105263157897,6.064536099998804
34,0.0005604368598267504,0.7073758638988842,0.9126136363636363,0.37221784089740956,0.8894736842105263,0.8894368153786569,1.0,0.9558823529411765,1.7360634252429008,0.36578947368421055,6.056132700003218
35,0.0005570083069086733,0.6551455543257974,0.93125,0.3438444440302096,0.8921052631578947,0.8925200287873667,1.0,0.95,1.3616195277163856,0.4631578947368421,6.057370800001081
36,0.0005534487293154471,0.686603263724934,0.9098863636363637,0.41469035932892245,0.8789473684210526,0.8790957020002169,1.0,0.9338235294117647,1.1038970144171463,0.5710526315789474,6.071950199999264
37,0.0005497599452825259,0.6192441407116976,0.9459090909090909,0.34801926801079197,0.8947368421052632,0.8948664508395503,1.0,0.9529411764705882,0.8536780507156724,0.6684210526315789,6.061866000003647
38,0.0005459438390441295,0.6841612919894132,0.923409090909091,0.3300153628775948,0.9105263157894737,0.9104185089503438,1.0,0.9661764705882353,0.7127180402216159,0.7315789473684211,6.079294600000139
39,0.0005420023598707758,0.6861388249830767,0.9219318181818181,0.33970923219856464,0.9052631578947369,0.9050646233184529,1.0,0.9632352941176471,0.5797870841465498,0.7789473684210526,6.070842200002517
40,0.0005379375210735911,0.6699024763974276,0.9318181818181818,0.34342795955507377,0.9026315789473685,0.9024533828962065,1.0,0.9441176470588235,0.5048106946443257,0.8263157894736842,6.117201300003217
41,0.0005337513989759092,0.6337797988544811,0.9334090909090909,0.34328420585707614,0.906578947368421,0.9066021265499244,1.0,0.9485294117647058,0.4490585727126975,0.8526315789473684,6.092059099995822
42,0.0005294461318526833,0.6733866073868492,0.9307954545454545,0.3609501468507867,0.9039473684210526,0.9029221845979325,1.0,0.9514705882352941,0.40727117406694513,0.8842105263157894,6.083109699997294
43,0.0005250239188382536,0.6764918145266446,0.9292045454545454,0.3590034080179114,0.9118421052631579,0.911440873182783,1.0,0.9602941176470589,0.3817983933185276,0.8973684210526316,6.101803600002313
44,0.0005204870188030272,0.6493746368451552,0.9384090909090909,0.3697945447344529,0.8763157894736842,0.8775078749388918,1.0,0.9264705882352942,0.36523192540595406,0.9013157894736842,6.095286199997645
45,0.0005158377491996452,0.650834035656669,0.9340909090909091,0.31951743709413627,0.9184210526315789,0.918426054584143,1.0,0.9691176470588235,0.3507557917582361,0.906578947368421,6.078059700004815
46,0.0005110784848792257,0.6563793228973042,0.9359090909090909,0.37291687428951265,0.8934210526315789,0.8928663939579072,1.0,0.9323529411764706,0.3410754558287169,0.9092105263157895,6.0639505999934045
47,0.0005062116568782877,0.6710610223900189,0.9330681818181819,0.3933792104846553,0.8947368421052632,0.8940162334806399,1.0,0.95,0.33050701790734344,0.9118421052631579,6.38368569999875
48,0.0005012397511769754,0.682211683663455,0.9311363636363637,0.36202211834882436,0.8986842105263158,0.8985655750197037,1.0,0.9588235294117647,0.3246584035848316,0.9184210526315789,6.113387400000647
49,0.0004961653074292177,0.6499902538819746,0.93875,0.3505250234352915,0.9013157894736842,0.9014373869790315,1.0,0.9455882352941176,0.3202338761404941,0.9184210526315789,6.08621470000071
50,0.0004909909176654702,0.6380834132974798,0.94125,0.3333194528755389,0.9131578947368421,0.9142354853901399,1.0,0.9514705882352941,0.31445416996353553,0.9171052631578948,6.108407200001238
51,0.00048571922496870357,0.6743802790208296,0.9325,0.39063138491229005,0.8842105263157894,0.8841341646892417,1.0,0.9426470588235294,0.3128308754218252,0.9197368421052632,6.08280100000411
52,0.00048035292212431514,0.6053591474619778,0.9540909090909091,0.3902946870577963,0.8894736842105263,0.8896811773250629,1.0,0.9411764705882353,0.31351446760328194,0.9223684210526316,6.070881699997699
53,0.0004748947502446508,0.6449158143997192,0.9425,0.3276459132370196,0.9144736842105263,0.9145457374730475,1.0,0.9647058823529412,0.31268732265422217,0.9223684210526316,6.091616700003215
54,0.00046934749736884306,0.6588038117235357,0.9368181818181818,0.33350207586037484,0.9039473684210526,0.9041380958754377,1.0,0.9544117647058824,0.31053438782691956,0.9197368421052632,6.087029100002837
55,0.0004637139970386777,0.658949376669797,0.935,0.37413334156337535,0.8934210526315789,0.892828233548973,1.0,0.9514705882352941,0.3118288937367891,0.9171052631578948,6.076080400001956
56,0.000457997126851218,0.6153648942167109,0.9528409090909091,0.3364393529139067,0.9210526315789473,0.9212101780786153,1.0,0.9632352941176471,0.30949281297231973,0.9184210526315789,6.079609499996877
57,0.00045219980698892607,0.6449524264985865,0.9381818181818182,0.3392617875023892,0.9026315789473685,0.9027065858417066,1.0,0.9529411764705882,0.30871228701189946,0.9184210526315789,6.081489700001839
58,0.0004463249987280305,0.6446239921179685,0.9382954545454546,0.3803554732548563,0.8960526315789473,0.8949089867697921,1.0,0.9367647058823529,0.30847304400644804,0.9184210526315789,6.131944499997189
59,0.000440375702925904,0.6546268936720762,0.94125,0.3184723697210613,0.9131578947368421,0.9127340314109343,1.0,0.9573529411764706,0.30881496291411553,0.9210526315789473,6.097510100000363
60,0.0004343549584882226,0.6054535735737193,0.9595454545454546,0.34227322998799775,0.9157894736842105,0.9155420523193317,1.0,0.9661764705882353,0.306481733447627,0.9197368421052632,6.105810300003213
61,0.00042826584081669025,0.6552149092067372,0.9422727272727273,0.33609333979456046,0.9131578947368421,0.9130886727397808,1.0,0.9676470588235294,0.30514176958485656,0.9210526315789473,6.08463920000213
62,0.00042211146023812037,0.6600430465828289,0.9340909090909091,0.3362311520074543,0.9131578947368421,0.9122197233882833,1.0,0.961764705882353,0.30577790046993053,0.9210526315789473,6.064341699995566
63,0.0004158949604156783,0.6620672310482372,0.9381818181818182,0.32219210267066956,0.9092105263157895,0.9085939798674685,1.0,0.9661764705882353,0.3064932562802967,0.9236842105263158,6.082001800001308
64,0.0004096195167430953,0.62257943760265,0.9497727272727273,0.4326950879473435,0.8736842105263158,0.8759099974567374,1.0,0.9191176470588235,0.30690058626626665,0.9223684210526316,6.071965700000874
65,0.0004032883347226749,0.6541840861060403,0.9343181818181818,0.3989244962993421,0.8855263157894737,0.8873720319459981,1.0,0.9264705882352942,0.308808055676912,0.9197368421052632,6.08106730000145
66,0.0003969046483279189,0.6432444266839461,0.9413636363636364,0.3791793013873853,0.8934210526315789,0.8933158935473049,1.0,0.9397058823529412,0.3091407377468912,0.9223684210526316,6.09307550000085
67,0.0003904717183516109,0.6543501927635886,0.9409090909090909,0.34080228366349874,0.9105263157894737,0.910019944321134,1.0,0.9691176470588235,0.3094194120482395,0.9236842105263158,6.098719199995685
68,0.0003839928307402005,0.6801661530407992,0.9382954545454546,0.3153810607759576,0.9092105263157895,0.9086504571374642,1.0,0.9647058823529412,0.3109499476457897,0.9210526315789473,6.068899799996871
69,0.00037747129491533916,0.6226753479784185,0.9551136363636363,0.3500959706933875,0.8947368421052632,0.8948908306873141,1.0,0.9411764705882353,0.3105083258528458,0.9197368421052632,6.072755799999868
70,0.0003709104420834241,0.6173427195982499,0.9536363636363636,0.35076735615730287,0.8921052631578947,0.8923063458055218,1.0,0.9647058823529412,0.3112144460803584,0.9210526315789473,6.076471899999888
71,0.00036431362353401533,0.6479006756435741,0.9376136363636364,0.36858962178230287,0.8842105263157894,0.8829922137478261,1.0,0.9514705882352941,0.31244567036628723,0.9197368421052632,6.255888100000448
72,0.0003576842089279937,0.6125723022764379,0.9527272727272728,0.315713139113627,0.9197368421052632,0.9199017867405713,1.0,0.9676470588235294,0.311384180658742,0.9197368421052632,6.094623500001035
73,0.0003510255845763356,0.5843980552933433,0.9626136363636364,0.35333504927785775,0.8986842105263158,0.8988415478455437,1.0,0.95,0.3097891566000487,0.9236842105263158,6.093007199997373
74,0.0003443411517103819,0.6413856883482499,0.9460227272727273,0.3241591613543661,0.9210526315789473,0.9212332152236188,1.0,0.9573529411764706,0.31067613206411665,0.9210526315789473,6.078171399996791
75,0.0003376343247444856,0.6304303015362133,0.9527272727272728,0.3217909566665951,0.9131578947368421,0.9132711183391058,1.0,0.9588235294117647,0.31006317107301007,0.925,6.087416999995185
76,0.0003309085295319264,0.6600447527928786,0.9413636363636364,0.33732203464759025,0.9105263157894737,0.9102192083739435,1.0,0.9661764705882353,0.3097139458907278,0.9236842105263158,6.1033059999972465
77,0.0003241672016149815,0.6379026699066163,0.9481818181818182,0.37020801807704723,0.8986842105263158,0.8988250434087176,1.0,0.95,0.30898855046222085,0.925,6.082515100002638
78,0.00031741378447004763,0.6098519572344693,0.9514772727272728,0.36318311157979466,0.9052631578947369,0.9046221079049472,1.0,0.9573529411764706,0.30853331810549683,0.925,6.077119000001403
79,0.00031065172774871004,0.662999571019953,0.93875,0.3490825856986799,0.9078947368421053,0.9071280604949175,1.0,0.9691176470588235,0.30879745577511036,0.9263157894736842,6.058524300002318
80,0.00030388448551565744,0.6419220639358867,0.9572727272727273,0.35148395770474483,0.906578947368421,0.9067298121741322,1.0,0.9602941176470589,0.310630235232805,0.925,6.055615299999772
81,0.0002971155144843426,0.6424843742630698,0.9525,0.3432009251494157,0.9144736842105263,0.9137542944760858,1.0,0.9691176470588235,0.3120553258218263,0.925,6.060176599996339
82,0.0002903482722512899,0.6356323916261847,0.9557954545454546,0.3261613544664885,0.9236842105263158,0.9234636033682927,1.0,0.9720588235294118,0.3127264333398719,0.925,6.060927799997444
83,0.0002835862155299524,0.6637430750239979,0.9422727272727273,0.3605324991439518,0.906578947368421,0.9070275957848551,1.0,0.961764705882353,0.31239391063389027,0.9236842105263158,6.0930718000017805
84,0.00027683279838501855,0.6093318991227583,0.9492045454545455,0.3146469522463648,0.9210526315789473,0.9206743975447134,1.0,0.9691176470588235,0.31109016882745844,0.9263157894736842,6.111393999999564
85,0.00027009147046807365,0.610950140953064,0.9657954545454546,0.33771169499347087,0.9171052631578948,0.9167019070681623,1.0,0.9691176470588235,0.31067328296209634,0.9263157894736842,6.088486100001319
86,0.0002633656752555145,0.589958533265374,0.9653409090909091,0.31867173784657526,0.9197368421052632,0.9193735888897706,1.0,0.961764705882353,0.3095476646172373,0.9263157894736842,6.099810400002752
87,0.00025665884828961807,0.6064258161458103,0.9589772727272727,0.33652416091216236,0.9131578947368421,0.9129153326468892,1.0,0.9676470588235294,0.3085016350997122,0.9276315789473685,6.053962400001183
88,0.00024997441542366436,0.6094226512041959,0.9506818181818182,0.3278184595860933,0.9184210526315789,0.9183504727465136,1.0,0.9588235294117647,0.30917454832478575,0.925,6.076045900001191
89,0.00024331579107200632,0.6360206288641149,0.9503409090909091,0.34144222861842105,0.9223684210526316,0.9222860388463886,1.0,0.9647058823529412,0.3102804886667352,0.925,6.084178099998098
90,0.0002366863764659847,0.6343575955520977,0.955,0.3265270841749091,0.9118421052631579,0.9116844043491673,1.0,0.9676470588235294,0.310743794002031,0.9263157894736842,6.084343799993803
91,0.0002300895579165759,0.634005824435841,0.9568181818181818,0.37067670226097105,0.9,0.8998224654300226,1.0,0.9514705882352941,0.3134902144733228,0.925,6.090332400002808
92,0.0002235287050846607,0.6030410563945771,0.9551136363636363,0.3034990822014056,0.9236842105263158,0.9236087961442994,1.0,0.9661764705882353,0.31486647662363554,0.9236842105263158,6.082769799999369
93,0.00021700716925979942,0.6197232996333729,0.946590909090909,0.304679147977578,0.9171052631578948,0.9168395848202312,1.0,0.961764705882353,0.31362826635963037,0.9236842105263158,6.083595300005982
94,0.00021052828164838913,0.6201408793709495,0.9532954545454545,0.348008647404219,0.906578947368421,0.9063746396538018,1.0,0.961764705882353,0.31349864790314125,0.9236842105263158,6.119553700002143
95,0.00020409535167208103,0.6303713382374156,0.9509090909090909,0.35354260927752446,0.9026315789473685,0.9027715205378584,1.0,0.9632352941176471,0.31470898985862733,0.9223684210526316,6.092701399997168
96,0.00019771166527732506,0.6131486483053727,0.9571590909090909,0.3383675019992025,0.9052631578947369,0.9049942763847103,1.0,0.9705882352941176,0.31536174636138115,0.9223684210526316,6.108465599994815
97,0.00019138048325690465,0.5573335255276073,0.9729545454545454,0.3439660731114839,0.9078947368421053,0.9075909199997767,1.0,0.9691176470588235,0.313703516596242,0.9210526315789473,6.081947999999102
98,0.00018510503958432174,0.6065814354202964,0.9561363636363637,0.31637685628313766,0.9223684210526316,0.9220859757812923,1.0,0.975,0.3141150226718501,0.9197368421052632,6.070756799999799
99,0.0001788885397618797,0.6449107850681651,0.9478409090909091,0.38196250451238534,0.906578947368421,0.9060067536146125,1.0,0.9588235294117647,0.31468802972843773,0.9197368421052632,6.066423099997337
100,0.00017273415918330973,0.5939119653268294,0.96875,0.3515823373669072,0.9092105263157895,0.9088713762048026,1.0,0.9661764705882353,0.3154589191863411,0.9197368421052632,6.039832400005253
101,0.00016664504151177735,0.6280676147070798,0.9581818181818181,0.36449424295048966,0.8973684210526316,0.8970636434341719,1.0,0.9470588235294117,0.3173443442896793,0.9184210526315789,6.039316100002907
102,0.00016062429707409598,0.6125805496085773,0.9604545454545454,0.3708355558545966,0.8934210526315789,0.8935674748880562,1.0,0.9485294117647058,0.31830388056604486,0.9171052631578948,6.113270599998941
103,0.00015467500127196946,0.6350508611852472,0.956590909090909,0.34698486234012405,0.9039473684210526,0.9042807571329788,1.0,0.9647058823529412,0.3199666867130681,0.9171052631578948,6.163413500005845
104,0.0001488001930110739,0.5868542443622242,0.9653409090909091,0.31716501336348685,0.9144736842105263,0.9141418637142855,1.0,0.961764705882353,0.3196224818104192,0.9171052631578948,6.071444000001065
105,0.00014300287314878202,0.6164888321269643,0.9606818181818182,0.35682453387661983,0.9052631578947369,0.9055741102200414,1.0,0.9529411764705882,0.31941343702768027,0.9171052631578948,6.048867099998461
106,0.00013728600296132235,0.6173069256002253,0.9602272727272727,0.35045912861824036,0.8960526315789473,0.8961296153853002,1.0,0.9544117647058824,0.3214385189508137,0.9171052631578948,6.077511199997389
107,0.00013165250263115694,0.6403718010945754,0.9536363636363636,0.3614168673753738,0.9026315789473685,0.9024268542883958,1.0,0.9544117647058824,0.32349757238438254,0.9171052631578948,6.061042900000757
108,0.0001261052497553492,0.5928791609677402,0.9671590909090909,0.3975341793737913,0.8921052631578947,0.8930980562576547,1.0,0.9352941176470588,0.3242848452768828,0.9171052631578948,6.052393999998458
109,0.0001206470778756849,0.6057238595052199,0.949659090909091,0.3670103380554601,0.8973684210526316,0.8972631061636903,1.0,0.9529411764705882,0.32517732413191547,0.9184210526315789,6.069056100001035
110,0.0001152807750312964,0.5916418099403381,0.96,0.3195225764262049,0.9131578947368421,0.9134704326496639,1.0,0.9632352941176471,0.32596555948257444,0.9197368421052632,6.012625800001842
111,0.00011000908233452982,0.5936037319356745,0.9657954545454546,0.36117634051724484,0.8973684210526316,0.8977453096509602,1.0,0.9411764705882353,0.32751472968804207,0.9157894736842105,6.071262100005697
112,0.00010483469257078224,0.5705619426207109,0.9636363636363636,0.33920777926319523,0.9052631578947369,0.9054801114115371,1.0,0.9558823529411765,0.3295629410367263,0.9171052631578948,6.11196039999777
113,9.976024882302456e-05,0.597488913752816,0.9671590909090909,0.3647864087631828,0.8973684210526316,0.8974187519885058,1.0,0.9529411764705882,0.3316662430763245,0.9144736842105263,6.0904737999953795
114,9.478834312171236e-05,0.597475969357924,0.96125,0.3410135375825982,0.8973684210526316,0.8973789272562719,1.0,0.9529411764705882,0.33371349165314124,0.9157894736842105,6.0798133999996935
115,8.992151512077429e-05,0.5954419283433394,0.95875,0.3585476527088567,0.9039473684210526,0.904260160366022,1.0,0.9397058823529412,0.33353954083041143,0.9144736842105263,6.0485059000056935
116,8.516225080035476e-05,0.5928962616486982,0.9664772727272727,0.3659724180635653,0.9039473684210526,0.904150075166822,1.0,0.9470588235294117,0.3340342480885355,0.9144736842105263,6.068407300001127
117,8.051298119697266e-05,0.5984827618165449,0.9593181818181818,0.3577805370092392,0.9013157894736842,0.9016100037776928,1.0,0.9558823529411765,0.33487532703500045,0.9144736842105263,6.060366700003215
118,7.597608116174637e-05,0.5750247838280418,0.9711363636363637,0.3341657141321584,0.9118421052631579,0.912301436749018,1.0,0.9514705882352941,0.3344935360707735,0.9092105263157895,6.084578199996031
119,7.155386814731662e-05,0.5661775324561379,0.9721590909090909,0.3286344035675651,0.9105263157894737,0.9107811251875086,1.0,0.9588235294117647,0.3333635019628625,0.906578947368421,6.080085400004464
120,6.724860102409081e-05,0.6343902804634788,0.9555681818181818,0.36344620522699855,0.9118421052631579,0.9117361724921228,1.0,0.9588235294117647,0.33333306469415364,0.9052631578947369,6.092965499999991
121,6.306247892640888e-05,0.5824182098562067,0.9661363636363637,0.3439686830106534,0.9039473684210526,0.9045769253347011,1.0,0.9485294117647058,0.3331030585263905,0.9092105263157895,6.117151699996612
122,5.899764012922409e-05,0.6174120387164029,0.961590909090909,0.35769050905579014,0.9,0.9006928779525264,1.0,0.9529411764705882,0.33394438153819034,0.9092105263157895,6.097071200005303
123,5.5056160955870474e-05,0.6305055369030346,0.96125,0.3378890988073851,0.9,0.8999961030758176,1.0,0.9602941176470589,0.3352624193618172,0.9105263157894737,6.062868499997421
124,5.1240054717474066e-05,0.5972322578863664,0.9638636363636364,0.3385844183595557,0.906578947368421,0.9065566032621779,1.0,0.961764705882353,0.3350884691665047,0.9105263157894737,6.074226500000805
125,4.755127068455278e-05,0.5833831544355913,0.9621590909090909,0.31920133923229416,0.9157894736842105,0.915621689796873,1.0,0.9661764705882353,0.3348937178912916,0.9105263157894737,6.061398999998346
126,4.399169309132677e-05,0.6149881709705699,0.9559090909090909,0.36368890153734307,0.9013157894736842,0.9017183858024982,1.0,0.9573529411764706,0.33592866690535295,0.9118421052631579,6.08437799999956
127,4.0563140173249585e-05,0.606144690730355,0.9580681818181818,0.33993177006119174,0.9078947368421053,0.9080745694359834,1.0,0.9602941176470589,0.3360691277604354,0.9118421052631579,6.067454000003636
128,3.726736323825278e-05,0.5952588005499406,0.9613636363636363,0.3521561462628214,0.906578947368421,0.9067502757392989,1.0,0.9573529411764706,0.3364692289578287,0.9105263157894737,6.067469399997208
129,3.41060457721751e-05,0.6098514350977811,0.9576136363636364,0.3507434236375909,0.9026315789473685,0.9027036949255413,1.0,0.9558823529411765,0.33715699754263223,0.9105263157894737,6.083234300000186
130,3.1080802578837415e-05,0.6195411957393993,0.9444318181818182,0.35243152819181744,0.9078947368421053,0.9084423962243188,1.0,0.9573529411764706,0.33773169329291897,0.9118421052631579,6.088437300000805
131,2.8193178955198895e-05,0.5827660616961392,0.9692045454545455,0.3147835988747446,0.9144736842105263,0.9141149666628025,1.0,0.9676470588235294,0.33615080149550186,0.9118421052631579,6.072244700000738
132,2.544464990201774e-05,0.6223056251352483,0.9473863636363636,0.3357599365083795,0.9184210526315789,0.9185490453649672,1.0,0.9691176470588235,0.3354013543379934,0.9118421052631579,6.065276900000754
133,2.283661937042025e-05,0.5989270095391707,0.95875,0.3457978904247284,0.9105263157894737,0.9105717720909677,1.0,0.9602941176470589,0.334392828062961,0.9105263157894737,6.080664599998272
134,2.0370419544760518e-05,0.6234220524267717,0.9538636363636364,0.32996376470515604,0.9171052631578948,0.9171635885984285,1.0,0.9691176470588235,0.3344137081974431,0.9118421052631579,6.111912300002587
135,1.804731016213988e-05,0.5736020825125955,0.9697727272727272,0.30998984857609396,0.9171052631578948,0.9172294717072041,1.0,0.9661764705882353,0.33270159175521447,0.9144736842105263,6.054754099997808
136,1.5868477868931964e-05,0.6303023539889943,0.9559090909090909,0.3328777906141783,0.9157894736842105,0.915700337106008,1.0,0.9691176470588235,0.33283731529587196,0.9144736842105263,6.087819699998363
137,1.3835035614642541e-05,0.6068495517427271,0.9589772727272727,0.33051806045205967,0.9092105263157895,0.9091238729368512,1.0,0.9602941176470589,0.332436572250567,0.9144736842105263,6.060143399998196
138,1.1948022083414199e-05,0.5774127637256276,0.9640909090909091,0.34020273324690364,0.9157894736842105,0.9161050475150055,1.0,0.961764705882353,0.33037205809041076,0.9157894736842105,6.086650999997801
139,1.0208401163465185e-05,0.6186827776648781,0.9580681818181818,0.35699872468647204,0.9131578947368421,0.9133321033394134,1.0,0.9529411764705882,0.3303308577913987,0.9171052631578948,6.073565200000303
140,8.617061454734755e-06,0.5848791980743409,0.9684090909090909,0.31624217817657874,0.9157894736842105,0.9156042537072299,1.0,0.9661764705882353,0.3298331014419857,0.9171052631578948,6.065764500002842
141,7.1748158149852224e-06,0.5823753799091685,0.9684090909090909,0.3081795145022242,0.9184210526315789,0.9183874732732557,1.0,0.9676470588235294,0.3289207856906088,0.9157894736842105,6.031649299999117
142,5.882400944593751e-06,0.5741703586144881,0.9676136363636364,0.32827951578717485,0.9157894736842105,0.9159127350757265,1.0,0.9676470588235294,0.3278044044971466,0.9157894736842105,6.090621600000304
143,4.740477010244959e-06,0.5974923682212829,0.96,0.3188710258195275,0.9144736842105263,0.9146246678741173,1.0,0.9705882352941176,0.3281864368601849,0.9157894736842105,6.0949044999943
144,3.7496273077172435e-06,0.6129839918830178,0.9644318181818182,0.33181417333452323,0.9105263157894737,0.9103150180220301,1.0,0.9632352941176471,0.3289174128519861,0.9157894736842105,6.069118999999773
145,2.9103579639347222e-06,0.5721587857333097,0.9776136363636364,0.3180380574966732,0.9171052631578948,0.9172544618562618,1.0,0.9647058823529412,0.3283357323784577,0.9157894736842105,6.080113700001675
146,2.223097678437247e-06,0.6811391245235097,0.9397727272727273,0.3683242800988649,0.9184210526315789,0.9186798865838594,1.0,0.9661764705882353,0.33013305648377067,0.9157894736842105,6.087758600006055
147,1.6881975044002091e-06,0.608413023406809,0.9580681818181818,0.3370840765927967,0.9118421052631579,0.9120759955592002,1.0,0.9661764705882353,0.33023745903843327,0.9157894736842105,6.095088200003374
148,1.3059306693162125e-06,0.6195518467643044,0.9595454545454546,0.32638405294794787,0.9157894736842105,0.9157879113865256,1.0,0.9661764705882353,0.33051043011640246,0.9171052631578948,6.10462379999808
149,1.0764924354303636e-06,0.5895105654543097,0.9697727272727272,0.33741342660627865,0.9171052631578948,0.9173867707659749,1.0,0.9602941176470589,0.32976604276581817,0.9157894736842105,6.085804700000153
150,1e-06,0.6169414086775347,0.9567045454545454,0.3271794369346217,0.9171052631578948,0.9171059799688527,1.0,0.9691176470588235,0.32988441868832236,0.9157894736842105,6.120320399997581
