epoch,lr,train_loss,train_accuracy,val_loss,val_accuracy,val_macro_f1,val_trial_accuracy,val_k3,ema_loss,ema_accuracy,seconds
1,5.9999999999999995e-05,1.2814746704968538,0.5386363636363637,0.8735081446798224,0.6605263157894737,0.6482379408045353,0.925,0.7058823529411765,1.6077880871923347,0.2,20.797853199997917
2,0.00011999999999999999,1.0842041154341264,0.6809090909090909,0.7039475277850502,0.7407894736842106,0.7402694868333868,0.975,0.8058823529411765,1.613968701111643,0.2,20.514542199998687
3,0.00018,1.0229836351221258,0.7301136363636364,0.5643617579811497,0.8026315789473685,0.7988855196649286,0.95,0.8691176470588236,1.6356984991776315,0.2,20.54287839999597
4,0.00023999999999999998,0.9637812948226929,0.7582954545454546,0.4702652542214645,0.8315789473684211,0.8280274284423543,0.975,0.8955882352941177,1.6743202648664777,0.2013157894736842,20.54141179999715
5,0.0003,0.9088647272370078,0.785,0.3990280148230101,0.8723684210526316,0.8710822270435268,1.0,0.9470588235294117,1.7597033055205094,0.2,20.51320389999455
6,0.00035999999999999997,0.9044308870488947,0.7931818181818182,0.4676614607635297,0.8394736842105263,0.8394703401607616,1.0,0.9058823529411765,1.9450111790707236,0.2,20.51029369999742
7,0.00042,0.9176796167547052,0.7921590909090909,0.36428551360180506,0.8894736842105263,0.8882082510793305,1.0,0.9397058823529412,2.218406917233216,0.2,20.51410539999779
8,0.0004799999999999999,0.8457872865416787,0.83125,0.42415514462872556,0.8578947368421053,0.8534933532616366,1.0,0.9176470588235294,2.579311171017195,0.2,20.52166969999962
9,0.00054,0.8763281817869707,0.819659090909091,0.4701030116332205,0.8552631578947368,0.8559271462783478,0.975,0.9073529411764706,2.9030708711398274,0.2,20.550089399999706
10,0.0005999999999999998,0.8415020340139215,0.8393181818181819,0.4910281441713634,0.8447368421052631,0.841886438336789,1.0,0.8764705882352941,3.2220280697471217,0.2,20.529171000001952
11,0.0006,0.8303389367190275,0.8411363636363637,0.40535113780122056,0.8789473684210526,0.8779401677852624,1.0,0.95,3.424141331801289,0.2,20.558154999998806
12,0.0005999235075645696,0.8092149465734308,0.8504545454545455,0.40806533474671214,0.8710526315789474,0.8727495137123646,1.0,0.925,3.554990146269924,0.2,20.530601900005422
13,0.0005996940693306837,0.7886630515618758,0.8709090909090909,0.49948128085387383,0.8355263157894737,0.826749373683333,0.95,0.8794117647058823,3.6544000326802855,0.2,20.522615900001256
14,0.0005993118024955998,0.7644256897406144,0.8781818181818182,0.41432372519844457,0.8592105263157894,0.8573809783724068,1.0,0.9102941176470588,3.7368135953812223,0.2,20.56555670000671
15,0.0005987769023215627,0.7821341408382763,0.8720454545454546,0.5106315004198174,0.8157894736842105,0.8160091760690371,0.95,0.8588235294117647,3.735181627814707,0.2,20.576617200000328
16,0.0005980896420360653,0.7886400933699175,0.8654545454545455,0.4386923639397872,0.8644736842105263,0.8646641869099021,1.0,0.9220588235294118,3.7026852257549763,0.2,20.55200270000205
17,0.0005972503726922827,0.7464451326023449,0.8785227272727273,0.39001672738476806,0.8710526315789474,0.8698140619115632,1.0,0.9294117647058824,3.6103227915732483,0.2,20.51044009999896
18,0.0005962595229897549,0.7696394690600309,0.8902272727272728,0.43180853818592274,0.8776315789473684,0.8747123229575443,1.0,0.9220588235294118,3.428714952853165,0.2013157894736842,20.541984800001956
19,0.0005951175990554061,0.7433769011497497,0.8919318181818182,0.45558989800904925,0.8763157894736842,0.874549967223088,1.0,0.9352941176470588,3.2071721327932257,0.20657894736842106,20.51510810000036
20,0.0005938251841850148,0.7434091052142057,0.8978409090909091,0.4488710914787493,0.8513157894736842,0.8493370541646199,1.0,0.9058823529411765,2.8393395875629626,0.2131578947368421,20.520076699998754
21,0.0005923829385452652,0.7288491090861233,0.9032954545454546,0.4273206823750546,0.875,0.8726530511416813,1.0,0.9264705882352942,2.393803024370419,0.25394736842105264,20.491358999999647
22,0.0005907915988365347,0.7131433907422152,0.9017045454545455,0.37322780254640076,0.8763157894736842,0.8755067226569508,1.0,0.9308823529411765,1.8561154215743667,0.3513157894736842,20.5499009999985
23,0.0005890519779165858,0.7244826405698603,0.8995454545454545,0.4212952645201432,0.8697368421052631,0.8679744048475142,1.0,0.8985294117647059,1.3647480008633512,0.48289473684210527,20.572226299998874
24,0.0005871649643853574,0.6950549674034119,0.9209090909090909,0.39675347271718475,0.8618421052631579,0.8602401774619445,1.0,0.9191176470588235,1.0120881135526456,0.6131578947368421,20.543113400002767
25,0.000585131522131068,0.6666347410462119,0.9309090909090909,0.3726946976624037,0.8934210526315789,0.8931544058470238,1.0,0.95,0.7743335123124876,0.7131578947368421,20.538706200000888
26,0.0005829526898378601,0.6880825107747858,0.9139772727272727,0.39841461181640625,0.8763157894736842,0.8749590083096465,1.0,0.9352941176470588,0.6092438148824793,0.7868421052631579,20.532724400000006
27,0.0005806295804552395,0.7202680395949971,0.9144318181818182,0.3720517199290426,0.8894736842105263,0.8894158661403603,1.0,0.9352941176470588,0.5024954548007563,0.8302631578947368,20.580924299996695
28,0.0005781633806295796,0.688749090758237,0.9105681818181818,0.45558648266290364,0.8565789473684211,0.8538849792129082,1.0,0.9191176470588235,0.44433079801107705,0.8552631578947368,20.52849050000077
29,0.0005755553500979822,0.7015697492252697,0.9163636363636364,0.4961789582905016,0.8605263157894737,0.8579887984327836,1.0,0.9117647058823529,0.4035734074680429,0.8802631578947369,20.483411099994555
30,0.0005728068210448012,0.7318319127776406,0.8981818181818182,0.3955575252834119,0.8710526315789474,0.8690081793258526,1.0,0.9308823529411765,0.37762150011564555,0.8894736842105263,20.544371999996656
31,0.0005699191974211625,0.7327368805625222,0.9107954545454545,0.4299058807523627,0.8644736842105263,0.8618952315222913,0.975,0.913235294117647,0.3608442610815952,0.8894736842105263,20.53108429999702
32,0.0005668939542278249,0.703981627334248,0.915,0.4154549041860982,0.8868421052631579,0.8887975133344277,1.0,0.9323529411764706,0.34733015455697713,0.8907894736842106,20.539294000001973
33,0.0005637326367617472,0.6621932963891463,0.9257954545454545,0.3607753552888569,0.8802631578947369,0.8801248567010639,1.0,0.95,0.33387535559503656,0.9013157894736842,20.526064600002428
34,0.0005604368598267504,0.6781630097736012,0.9215909090909091,0.4397945209553367,0.8631578947368421,0.8615843071946097,1.0,0.9102941176470588,0.32523566798159953,0.9039473684210526,20.534846900001867
35,0.0005570083069086733,0.6866851982203397,0.925,0.42643587024588336,0.8723684210526316,0.8698922542495714,0.975,0.9117647058823529,0.3181551472136849,0.906578947368421,20.51674059999641
36,0.0005534487293154471,0.665732899795879,0.9293181818181818,0.3678818150570518,0.8881578947368421,0.8877499246497033,1.0,0.9470588235294117,0.3145942283304114,0.9092105263157895,20.525218199996743
37,0.0005497599452825259,0.6969858332113786,0.9193181818181818,0.4700123830845481,0.8421052631578947,0.8409674479320783,1.0,0.8955882352941177,0.31409691164368075,0.9118421052631579,20.519194399996195
38,0.0005459438390441295,0.6723623724417253,0.9251136363636364,0.39827459109456914,0.8828947368421053,0.8817117464477014,1.0,0.9367647058823529,0.31403977180782117,0.9118421052631579,20.53454729999794
39,0.0005420023598707758,0.6867250862988559,0.9260227272727273,0.43320256377521316,0.8828947368421053,0.8820744007905988,1.0,0.9397058823529412,0.3134818233941731,0.9157894736842105,20.534802900001523
40,0.0005379375210735911,0.6682404461773959,0.9338636363636363,0.37339654345261425,0.8828947368421053,0.8806676605808125,1.0,0.9308823529411765,0.3132821744994113,0.9092105263157895,20.57395930000348
41,0.0005337513989759092,0.6584136312658136,0.9347727272727273,0.35795786004317437,0.8960526315789473,0.8957443463649218,1.0,0.9558823529411765,0.31001502495062977,0.9144736842105263,20.56335620000027
42,0.0005294461318526833,0.6556942315535111,0.9409090909090909,0.4339437779627348,0.8539473684210527,0.8518388683686624,1.0,0.9088235294117647,0.31025571258444534,0.9105263157894737,20.55334369999764
43,0.0005250239188382536,0.6722961911288174,0.9285227272727272,0.36408321794710663,0.8973684210526316,0.8957925346089659,1.0,0.9382352941176471,0.3094135886744449,0.9118421052631579,20.51101970000309
44,0.0005204870188030272,0.6751570242101496,0.9317045454545455,0.4027961928593485,0.8618421052631579,0.8624454923607981,1.0,0.9279411764705883,0.3104405054920598,0.906578947368421,20.516889699996682
45,0.0005158377491996452,0.6784621487964283,0.9368181818181818,0.3825408730067705,0.8894736842105263,0.8900760358911475,1.0,0.9397058823529412,0.31024760196083473,0.9092105263157895,20.553264299996954
46,0.0005110784848792257,0.6715562575513666,0.9343181818181818,0.4342865787054363,0.875,0.8761126576345399,1.0,0.9382352941176471,0.31159720138499614,0.9118421052631579,20.52043760000379
47,0.0005062116568782877,0.6335658090764826,0.9419318181818181,0.37668609619140625,0.8947368421052632,0.8942161496545763,1.0,0.9382352941176471,0.3103468236170317,0.9105263157894737,20.506897300001583
48,0.0005012397511769754,0.6204941593516957,0.9385227272727272,0.3818563762464021,0.8894736842105263,0.8881379054159793,1.0,0.9441176470588235,0.3110098189429233,0.906578947368421,20.55450109999947
49,0.0004961653074292177,0.6634790479053151,0.9389772727272727,0.4002620902500654,0.8881578947368421,0.8868138615263547,1.0,0.9294117647058824,0.31156391281830637,0.906578947368421,20.560800200000813
50,0.0004909909176654702,0.6483098459243775,0.9509090909090909,0.3843732724064275,0.881578947368421,0.8802524485433547,1.0,0.9279411764705883,0.3094487635712875,0.906578947368421,20.538123899998027
51,0.00048571922496870357,0.6700623984770341,0.93625,0.3756719488846628,0.8828947368421053,0.8827202344789746,1.0,0.9382352941176471,0.3126090608145061,0.9026315789473685,20.51682840000285
52,0.00048035292212431514,0.6769947858290238,0.9410227272727273,0.3739831212319826,0.8855263157894737,0.8844007680359214,1.0,0.9426470588235294,0.3146640968950171,0.9013157894736842,20.628443000001425
53,0.0004748947502446508,0.6614013726061041,0.9427272727272727,0.373411078202097,0.881578947368421,0.8806812992293894,1.0,0.9367647058823529,0.3140777989437706,0.9026315789473685,20.528771999997844
54,0.00046934749736884306,0.6868638394095681,0.9310227272727273,0.36606445281129135,0.9013157894736842,0.9005803975960107,1.0,0.9470588235294117,0.3166002364535081,0.9039473684210526,20.508285200005048
55,0.0004637139970386777,0.6457768730683761,0.9495454545454546,0.3851043309036054,0.8973684210526316,0.8966893553357502,1.0,0.9426470588235294,0.31777885744446205,0.9039473684210526,20.540115499999956
56,0.000457997126851218,0.6716735382513567,0.9359090909090909,0.43105741864756536,0.8776315789473684,0.8767651956069489,1.0,0.913235294117647,0.31700327019942437,0.9052631578947369,20.50228440000501
57,0.00045219980698892607,0.6114328010515733,0.9498863636363636,0.3689414165521923,0.8921052631578947,0.8918572558592981,1.0,0.9382352941176471,0.316514506779219,0.9026315789473685,20.540850299999875
58,0.0004463249987280305,0.609154217893427,0.9428409090909091,0.3542779615050868,0.8947368421052632,0.8939157493448973,1.0,0.9529411764705882,0.31715666118421054,0.9052631578947369,20.523221000003105
59,0.000440375702925904,0.6001396571506153,0.959659090909091,0.3591625806532408,0.8894736842105263,0.888656052524205,1.0,0.9352941176470588,0.3163948059082031,0.9078947368421053,20.515860400002566
60,0.0004343549584882226,0.61254748897119,0.9490909090909091,0.39259245928965114,0.8736842105263158,0.8723739020540799,1.0,0.9308823529411765,0.3168442980239266,0.9052631578947369,20.541164799993567
61,0.00042826584081669025,0.6224881809408015,0.9489772727272727,0.40209069377497625,0.8828947368421053,0.8818874135985368,1.0,0.9382352941176471,0.31753287158514326,0.9026315789473685,20.54435419999936
62,0.00042211146023812037,0.6553888726234436,0.9442045454545455,0.3663471824244449,0.8907894736842106,0.8902641702569983,1.0,0.9455882352941176,0.3209843688889554,0.9,20.596773600002052
63,0.0004158949604156783,0.6058051466941834,0.9642045454545455,0.4511544469155763,0.8618421052631579,0.8609941313660597,1.0,0.9117647058823529,0.32253707082648025,0.9013157894736842,20.593050100003893
64,0.0004096195167430953,0.6681929395415566,0.9392045454545455,0.37753665384493373,0.8960526315789473,0.8951599299268423,1.0,0.961764705882353,0.32368485237422745,0.9026315789473685,20.55692810000619
65,0.0004032883347226749,0.6551276139779524,0.9423863636363636,0.359907351042095,0.8921052631578947,0.891511852852441,1.0,0.9426470588235294,0.3239230905708514,0.9026315789473685,20.55450230000133
66,0.0003969046483279189,0.5936408374526284,0.9613636363636363,0.3995115578174591,0.8828947368421053,0.8818983676756675,1.0,0.9338235294117647,0.3230566316529324,0.9039473684210526,20.55065939999622
67,0.0003904717183516109,0.5882809769023548,0.9614772727272727,0.35560290750704315,0.9013157894736842,0.9012574964284067,1.0,0.9470588235294117,0.32351431595651725,0.9039473684210526,20.494154300002265
68,0.0003839928307402005,0.6144423881444064,0.9456818181818182,0.3505553803945843,0.8934210526315789,0.8918181261930309,1.0,0.9485294117647058,0.3210513463145808,0.9039473684210526,20.520693599995866
69,0.00037747129491533916,0.623789910403165,0.9507954545454546,0.37434045923383613,0.9,0.8999007064942297,1.0,0.9529411764705882,0.32170586742852864,0.9026315789473685,20.510236800000712
70,0.0003709104420834241,0.6218102041157809,0.9460227272727273,0.36700708583781594,0.8894736842105263,0.8899045336175384,1.0,0.9485294117647058,0.3225204464636351,0.9052631578947369,20.52377780000097
71,0.00036431362353401533,0.6489733844453638,0.9495454545454546,0.3681386440992355,0.8894736842105263,0.8891942652563447,1.0,0.9352941176470588,0.32589480657326547,0.9026315789473685,20.54933880000317
72,0.0003576842089279937,0.6027751497788862,0.9570454545454545,0.37760680396305885,0.8868421052631579,0.8877404703681853,1.0,0.95,0.3250831199319739,0.906578947368421,20.58062510000309
73,0.0003510255845763356,0.6323848030783913,0.9461363636363637,0.37709547249894393,0.8855263157894737,0.8842968407639784,1.0,0.9411764705882353,0.3240234375,0.9026315789473685,20.578952999996545
74,0.0003443411517103819,0.6137453271042217,0.9551136363636363,0.36995978073069924,0.8868421052631579,0.8872534902116703,1.0,0.9382352941176471,0.32360895997599554,0.9052631578947369,20.55740109999897
75,0.0003376343247444856,0.6392960818247362,0.9418181818181818,0.3997256620934135,0.881578947368421,0.8807711645189471,1.0,0.9367647058823529,0.3237498242604105,0.9026315789473685,20.550542799996038
76,0.0003309085295319264,0.6341515241969715,0.9581818181818181,0.4026110594209872,0.881578947368421,0.8828924254024229,1.0,0.9426470588235294,0.3238371187134793,0.9078947368421053,20.549660399999993
77,0.0003241672016149815,0.6325089864297346,0.9561363636363637,0.37895279024776657,0.8894736842105263,0.8896738575993165,1.0,0.9426470588235294,0.32503196252019784,0.9039473684210526,20.55870810000488
78,0.00031741378447004763,0.6046786828474565,0.9586363636363636,0.39567674210197046,0.8921052631578947,0.8904267056446521,1.0,0.9367647058823529,0.328110061507476,0.9026315789473685,20.53088050000224
79,0.00031065172774871004,0.5981979761340401,0.9590909090909091,0.3933316680945848,0.8907894736842106,0.8902991506640345,1.0,0.9426470588235294,0.3307658142165134,0.8973684210526316,20.502998700001626
80,0.00030388448551565744,0.5919530067660592,0.9647727272727272,0.3947605333830181,0.8881578947368421,0.8877509621809839,1.0,0.9352941176470588,0.3305567684926485,0.8947368421052632,20.529720599995926
81,0.0002971155144843426,0.6165890859473835,0.9532954545454545,0.3624539422361474,0.8973684210526316,0.8971981922992812,1.0,0.9411764705882353,0.3291298304733477,0.8960526315789473,20.50262020000082
82,0.0002903482722512899,0.5927363085746765,0.9670454545454545,0.38605571561738067,0.8802631578947369,0.8797698098854468,1.0,0.9294117647058824,0.330160843698602,0.8973684210526316,20.573508300003596
83,0.0002835862155299524,0.6043724729798057,0.95625,0.42068433165550234,0.8644736842105263,0.8624931684536564,1.0,0.9235294117647059,0.33208537948758976,0.8986842105263158,20.53961640000489
84,0.00027683279838501855,0.6311634280464866,0.9506818181818182,0.38433849968408285,0.8855263157894737,0.8849255360750975,1.0,0.9382352941176471,0.3325871517783717,0.9,20.554706000002625
85,0.00027009147046807365,0.616788002577695,0.9519318181818182,0.44849468155911093,0.8539473684210527,0.8529674240320684,1.0,0.9014705882352941,0.3337679401824349,0.8986842105263158,20.580373900003906
86,0.0002633656752555145,0.6101096443696455,0.9668181818181818,0.34388475967080967,0.9105263157894737,0.9101710367950936,1.0,0.9529411764705882,0.3351188258120888,0.9013157894736842,20.53086130000156
87,0.00025665884828961807,0.586944936839017,0.9692045454545455,0.3609729173936342,0.9,0.8991186841069176,1.0,0.9426470588235294,0.3381266540602634,0.8973684210526316,20.504222199997457
88,0.00024997441542366436,0.5840341383760626,0.9647727272727272,0.35467677837923955,0.9,0.8993870668448263,1.0,0.9544117647058824,0.338566066403138,0.9,20.505235900003754
89,0.00024331579107200632,0.5965716218948365,0.9676136363636364,0.41006979722725717,0.8776315789473684,0.8769858656332608,1.0,0.9352941176470588,0.34135561428572003,0.9,20.538582399996812
90,0.0002366863764659847,0.5737519160183994,0.9805681818181818,0.3844575982344778,0.8894736842105263,0.889335592377067,1.0,0.9455882352941176,0.3416751660798725,0.9013157894736842,20.5430744999976
91,0.0002300895579165759,0.5697263572432778,0.9657954545454546,0.3747854935495477,0.8907894736842106,0.8900117016445186,1.0,0.9411764705882353,0.3412032688918867,0.9039473684210526,20.557469899998978
92,0.0002235287050846607,0.6168301768736406,0.9567045454545454,0.3670453131198883,0.8973684210526316,0.8968447732299346,1.0,0.9514705882352941,0.34312659721625477,0.9052631578947369,20.56987599999411
93,0.00021700716925979942,0.5996862329136241,0.9601136363636363,0.40700306045381646,0.8776315789473684,0.8768949001302241,1.0,0.9323529411764706,0.34175623937657007,0.9013157894736842,20.54018320000614
94,0.00021052828164838913,0.599720308563926,0.9607954545454546,0.4353228126701556,0.8657894736842106,0.8645945516397614,1.0,0.913235294117647,0.3433694136770148,0.9026315789473685,20.53301499999361
95,0.00020409535167208103,0.6204403295300224,0.9636363636363636,0.35963901751919797,0.8855263157894737,0.884728244927899,1.0,0.9426470588235294,0.34184269152189556,0.9026315789473685,20.51467060000141
96,0.00019771166527732506,0.5659454894065857,0.9693181818181819,0.4119969822858509,0.8802631578947369,0.8787613940593518,1.0,0.9352941176470588,0.3405991002133018,0.906578947368421,20.533027900004527
97,0.00019138048325690465,0.6050795331868258,0.9663636363636363,0.4014896201459985,0.8881578947368421,0.8871409290026013,1.0,0.9220588235294118,0.34096462820705614,0.9092105263157895,20.524977600005514
98,0.00018510503958432174,0.5907460212707519,0.9670454545454545,0.37184239343592995,0.8960526315789473,0.8954691717013098,1.0,0.9455882352941176,0.34211196962155793,0.9092105263157895,20.535617000001366
99,0.0001788885397618797,0.5956714379787446,0.9636363636363636,0.39495765347229805,0.8868421052631579,0.8858091316921349,1.0,0.9485294117647058,0.34209538509971216,0.9092105263157895,20.501982999994652
100,0.00017273415918330973,0.6320767257430336,0.9576136363636364,0.3630752572887822,0.8894736842105263,0.8892453710985577,1.0,0.95,0.34415351372016106,0.9039473684210526,20.467782899999293
101,0.00016664504151177735,0.6006195108457045,0.9620454545454545,0.3945741750692066,0.8789473684210526,0.8773382503070681,1.0,0.9279411764705883,0.34496363589638157,0.906578947368421,20.514685900001496
102,0.00016062429707409598,0.6169726215709339,0.9651136363636363,0.4005362665966937,0.8763157894736842,0.8757961782018644,1.0,0.925,0.3447465197036141,0.9078947368421053,20.47584690000076
103,0.00015467500127196946,0.6110062588344921,0.9702272727272727,0.3731532051375038,0.8973684210526316,0.8971427681556529,1.0,0.9470588235294117,0.34368165731430056,0.9078947368421053,20.500297400001728
104,0.0001488001930110739,0.610820694619959,0.9620454545454545,0.3961468348377629,0.8842105263157894,0.8832028449178718,1.0,0.9441176470588235,0.3431632183100048,0.9052631578947369,20.58543230000214
105,0.00014300287314878202,0.612436464916576,0.9661363636363637,0.3818755291010204,0.8934210526315789,0.893039943702959,1.0,0.9485294117647058,0.3431793620711879,0.9026315789473685,20.549126300000353
106,0.00013728600296132235,0.6043459817496213,0.9618181818181818,0.42935248832953604,0.8618421052631579,0.8608859628912231,1.0,0.9323529411764706,0.34569156044407895,0.9052631578947369,20.530536400001438
107,0.00013165250263115694,0.5529487720402805,0.9795454545454545,0.3722100505703374,0.8986842105263158,0.8980940381741395,1.0,0.95,0.3456951740540956,0.9026315789473685,20.557981300000392
108,0.0001261052497553492,0.5687667998400602,0.961590909090909,0.3851780543201848,0.8842105263157894,0.8838408891704452,1.0,0.9367647058823529,0.34415206877808824,0.9039473684210526,20.500139099996886
109,0.0001206470778756849,0.5703837331858548,0.9668181818181818,0.3703891954923931,0.8973684210526316,0.8966495912610869,1.0,0.9514705882352941,0.3425190567970276,0.9039473684210526,20.525216699999874
110,0.0001152807750312964,0.6045704126358032,0.9640909090909091,0.3918890705234126,0.8921052631578947,0.8913601847775207,1.0,0.9514705882352941,0.34212614266495955,0.9052631578947369,20.530009699999937
111,0.00011000908233452982,0.6136117534203963,0.9611363636363637,0.35971623439537853,0.8947368421052632,0.8943282325603352,1.0,0.9441176470588235,0.34222781532689145,0.9039473684210526,20.520865999998932
112,0.00010483469257078224,0.5513109007748691,0.9785227272727273,0.3690630056356129,0.9,0.8994678417745579,1.0,0.95,0.3430444827205256,0.906578947368421,20.504697200005467
113,9.976024882302456e-05,0.5852930708365007,0.9686363636363636,0.34772736461539017,0.9013157894736842,0.9010891508893428,1.0,0.9485294117647058,0.3421432906075528,0.9026315789473685,20.537107600001036
114,9.478834312171236e-05,0.5509447304768996,0.9840909090909091,0.3302128032634133,0.9,0.8995465094195343,1.0,0.9455882352941176,0.3393610104134208,0.9026315789473685,20.495651299999736
115,8.992151512077429e-05,0.5747533969445662,0.9685227272727273,0.3293046646996548,0.9144736842105263,0.9142770478718744,1.0,0.9632352941176471,0.3360180908127835,0.9026315789473685,20.52474870000151
116,8.516225080035476e-05,0.6120988623662429,0.9640909090909091,0.36642973956308866,0.8960526315789473,0.8959137681997353,1.0,0.9485294117647058,0.3352679193019867,0.9026315789473685,20.509983399999328
117,8.051298119697266e-05,0.5879548846591602,0.9647727272727272,0.3400515095183724,0.9078947368421053,0.907523173967253,1.0,0.9544117647058824,0.3354272145974009,0.9026315789473685,20.51166490000469
118,7.597608116174637e-05,0.5910725749622692,0.9680681818181818,0.3634939901138607,0.8921052631578947,0.8918141394763831,1.0,0.9558823529411765,0.33636876093713863,0.9039473684210526,20.566380199998093
119,7.155386814731662e-05,0.616475280414928,0.9648863636363636,0.36412249207496644,0.8907894736842106,0.8903622563581205,1.0,0.9558823529411765,0.3390791234217192,0.9026315789473685,20.566042699996615
120,6.724860102409081e-05,0.6119794415343891,0.9563636363636364,0.3704001175729852,0.8960526315789473,0.8958920120623599,1.0,0.95,0.33967293093079015,0.8986842105263158,20.540016099999775
121,6.306247892640888e-05,0.5353319888765161,0.9832954545454545,0.38344132272820725,0.8907894736842106,0.8902245660694443,1.0,0.9485294117647058,0.34124980631627533,0.8986842105263158,20.568457700006547
122,5.899764012922409e-05,0.6067106158083135,0.9653409090909091,0.41669664884868424,0.8842105263157894,0.883556780119255,1.0,0.9382352941176471,0.34413403931416964,0.8973684210526316,20.581513799996173
123,5.5056160955870474e-05,0.5956941604614258,0.9710227272727273,0.37514270889131646,0.8960526315789473,0.8953351631681539,1.0,0.9544117647058824,0.346566852456645,0.9,20.540698999997403
124,5.1240054717474066e-05,0.5797945029085333,0.9726136363636364,0.34813886896560065,0.906578947368421,0.9060526611020414,1.0,0.9573529411764706,0.3467795121042352,0.8986842105263158,20.596053900000697
125,4.755127068455278e-05,0.5648796594142914,0.9726136363636364,0.34324886861600373,0.9078947368421053,0.9073804367321318,1.0,0.9470588235294117,0.34419250519652117,0.8986842105263158,20.595558099994378
126,4.399169309132677e-05,0.5699889289249074,0.9668181818181818,0.356340428716258,0.9052631578947369,0.904881766912854,1.0,0.95,0.34256527486600374,0.9,20.545188099997176
127,4.0563140173249585e-05,0.6124649720842188,0.9613636363636363,0.3377748591335196,0.9052631578947369,0.9050024395861435,1.0,0.9544117647058824,0.34350063894924365,0.9,20.55268590000196
128,3.726736323825278e-05,0.5382713920419866,0.9876136363636364,0.3437782287597656,0.9092105263157895,0.9086754244373129,1.0,0.9573529411764706,0.34295590080712973,0.9,20.578995199997735
129,3.41060457721751e-05,0.5730312764644623,0.9752272727272727,0.36733591180098685,0.8973684210526316,0.8966386515155305,1.0,0.9544117647058824,0.3441506630495975,0.9013157894736842,20.523252399994817
130,3.1080802578837415e-05,0.5810127141258933,0.9661363636363637,0.34237056578460495,0.9078947368421053,0.9074012995188809,1.0,0.9558823529411765,0.3450536636929763,0.9026315789473685,20.532466000004206
131,2.8193178955198895e-05,0.5696065890789032,0.9688636363636364,0.3415423744603207,0.9026315789473685,0.9020276446312178,1.0,0.9573529411764706,0.34458810812548585,0.9039473684210526,20.503897399998095
132,2.544464990201774e-05,0.5799125184796073,0.9680681818181818,0.3427129648233715,0.906578947368421,0.9061418618361815,1.0,0.9544117647058824,0.34467155039310454,0.9039473684210526,20.544173299997055
133,2.283661937042025e-05,0.5738875732638619,0.9729545454545454,0.3458067238330841,0.9092105263157895,0.908911913731903,1.0,0.9485294117647058,0.34525066206329746,0.9026315789473685,20.5393241999991
134,2.0370419544760518e-05,0.5995386509461836,0.9617045454545454,0.3437483539706782,0.906578947368421,0.9060615318781311,1.0,0.9544117647058824,0.34611302441672276,0.9026315789473685,20.510590499994578
135,1.804731016213988e-05,0.5686032795906066,0.975909090909091,0.3520156060394488,0.9026315789473685,0.9021956068647002,1.0,0.9529411764705882,0.3463488927012996,0.9039473684210526,20.52979790000245
136,1.5868477868931964e-05,0.5733800612796437,0.9725,0.3492338484839389,0.9078947368421053,0.9073643364342743,1.0,0.9529411764705882,0.34653665674360173,0.9039473684210526,20.546857400004228
137,1.3835035614642541e-05,0.5925959744236686,0.9669318181818182,0.35474299333597487,0.9039473684210526,0.9033799722593759,1.0,0.9485294117647058,0.3474391731776689,0.9039473684210526,20.55405740000424
138,1.1948022083414199e-05,0.5852308015389875,0.9669318181818182,0.3600895928709131,0.9092105263157895,0.9087942823340303,1.0,0.95,0.3480465542328985,0.9052631578947369,20.496701099997154
139,1.0208401163465185e-05,0.5789382142370397,0.9728409090909091,0.37214644614018894,0.9026315789473685,0.9024233569109438,1.0,0.9426470588235294,0.3492296720805921,0.9052631578947369,20.527711900002032
140,8.617061454734755e-06,0.574615734056993,0.98125,0.3618599330124102,0.9039473684210526,0.9035189806363148,1.0,0.9514705882352941,0.35024928074134026,0.9052631578947369,20.564012800001365
141,7.1748158149852224e-06,0.5931673366373236,0.9725,0.36554750204086306,0.8986842105263158,0.8982435561624935,1.0,0.95,0.35128864536159915,0.906578947368421,20.50728180000442
142,5.882400944593751e-06,0.5874666812203148,0.956590909090909,0.3554944493268665,0.906578947368421,0.9060580834844956,1.0,0.9514705882352941,0.3516092399233266,0.906578947368421,20.547802299995965
143,4.740477010244959e-06,0.5778833519328724,0.9726136363636364,0.36721817788324856,0.9052631578947369,0.9047114307901483,1.0,0.9514705882352941,0.35181555449962615,0.9052631578947369,20.54901119999704
144,3.7496273077172435e-06,0.6032442825490778,0.9709090909090909,0.36267395003845815,0.9026315789473685,0.9020183459522422,1.0,0.95,0.35287242657259893,0.9052631578947369,20.567924900002254
145,2.9103579639347222e-06,0.5913268233429302,0.9713636363636363,0.37648588528758603,0.9,0.8994931026633546,1.0,0.9397058823529412,0.353298629428211,0.9052631578947369,20.56848329999775
146,2.223097678437247e-06,0.5320723804560574,0.9832954545454545,0.3413484273772491,0.906578947368421,0.9059924212348772,1.0,0.9529411764705882,0.3524660607701854,0.9039473684210526,20.56886140000279
147,1.6881975044002091e-06,0.5842578287558122,0.9742045454545455,0.37437246222245063,0.9026315789473685,0.9021340421397646,1.0,0.9514705882352941,0.35273638320596595,0.9039473684210526,20.5263311000017
148,1.3059306693162125e-06,0.6043228691274469,0.9646590909090909,0.3582560484346591,0.9026315789473685,0.902212574252512,1.0,0.9485294117647058,0.3535603571879236,0.9039473684210526,20.504583199995977
149,1.0764924354303636e-06,0.5827717394178564,0.9768181818181818,0.3706669856058924,0.9026315789473685,0.9021122770136223,1.0,0.9485294117647058,0.3538754918073353,0.9026315789473685,20.49008589999721
150,1e-06,0.5765054681084373,0.9726136363636364,0.34081477162085083,0.9052631578947369,0.9047588892900322,1.0,0.9514705882352941,0.3541340079746748,0.9039473684210526,20.50690459999896
