epoch,lr,train_loss,train_accuracy,val_loss,val_accuracy,val_macro_f1,val_trial_accuracy,val_k3,ema_loss,ema_accuracy,seconds
1,5.9999999999999995e-05,1.2949274383891713,0.5276136363636363,0.8470444930227179,0.6973684210526315,0.6943767183759733,0.925,0.7426470588235294,1.6080142347436202,0.2,20.714239199995063
2,0.00011999999999999999,1.1030750916220926,0.6681818181818182,0.5918904850357457,0.7868421052631579,0.781731634282484,0.975,0.8455882352941176,1.6119911570298044,0.2026315789473684,20.530679399998917
3,0.00018,0.9951468766819347,0.7369318181818182,0.5893114187215504,0.7618421052631579,0.7569552595186178,0.95,0.8294117647058824,1.627203691633124,0.2,20.483244600000035
4,0.00023999999999999998,0.9480771298841997,0.7692045454545454,0.478315974536695,0.8513157894736842,0.8499026809300517,1.0,0.9088235294117647,1.6653731496710527,0.2,20.51842570000008
5,0.0003,0.9100691151618957,0.7843181818181818,0.5392590334540919,0.8144736842105263,0.812405498487904,1.0,0.8676470588235294,1.7501400633862143,0.2,20.507471500000975
6,0.00035999999999999997,0.8843725958737461,0.8022727272727272,0.6001248607510015,0.7934210526315789,0.800414506069286,0.95,0.8470588235294118,1.8805471319901317,0.2,20.523369000002276
7,0.00042,0.895520111430775,0.8110227272727273,0.6480803941425525,0.7631578947368421,0.7617297236119345,0.925,0.8029411764705883,2.0475444605475976,0.2,20.533002600001055
8,0.0004799999999999999,0.8429123046181418,0.8282954545454545,0.46035467543100056,0.8447368421052631,0.8413767245422195,1.0,0.8985294117647059,2.245943409518192,0.2,20.511957700000494
9,0.00054,0.8292097559842196,0.8380681818181818,0.5632958625492297,0.8052631578947368,0.7972292774472348,0.95,0.8485294117647059,2.4285872609991777,0.2,20.493217999995977
10,0.0005999999999999998,0.8388173070820895,0.8293181818181818,0.4030935491386213,0.8631578947368421,0.86280464982664,1.0,0.9220588235294118,2.6503165800320474,0.1986842105263158,20.603670399999828
11,0.0006,0.7949221272902055,0.8529545454545454,0.4573515230103543,0.8460526315789474,0.8462116007179986,0.975,0.9,2.8318251757245316,0.1986842105263158,20.56704549999995
12,0.0005999235075645696,0.8151287646727129,0.8576136363636364,0.5053890930978875,0.8328947368421052,0.8267589592641974,0.95,0.8808823529411764,3.02943621199382,0.1986842105263158,20.514142799998808
13,0.0005996940693306837,0.7874798115816983,0.8769318181818182,0.42595283232237163,0.8578947368421053,0.8564222676991813,0.95,0.9147058823529411,3.20295072809646,0.1986842105263158,20.488776500002132
14,0.0005993118024955998,0.8009808191386136,0.8634090909090909,0.4578746298426076,0.8592105263157894,0.8602554981272614,1.0,0.9,3.2493969164396588,0.2013157894736842,20.533669700002065
15,0.0005987769023215627,0.7472555258057334,0.8870454545454546,0.39474172027487503,0.8802631578947369,0.8791724062859085,1.0,0.9205882352941176,3.282056828705888,0.20657894736842106,20.525083300002734
16,0.0005980896420360653,0.7119354323907332,0.8985227272727273,0.4055229576010453,0.8776315789473684,0.8775419854300512,1.0,0.913235294117647,3.263644650186363,0.2131578947368421,20.522414999999455
17,0.0005972503726922827,0.7483697917244652,0.8907954545454545,0.4032272342004274,0.8776315789473684,0.8776516286903082,1.0,0.9235294117647059,3.1404142681705323,0.23157894736842105,20.558396899999934
18,0.0005962595229897549,0.730750974741849,0.8926136363636363,0.4498651397855658,0.8486842105263158,0.8489104966756906,1.0,0.8970588235294118,2.928419193547023,0.24868421052631579,20.74191409999912
19,0.0005951175990554061,0.7367337294058366,0.8953409090909091,0.44890419840812684,0.8513157894736842,0.85122390807995,1.0,0.9205882352941176,2.5625909707263896,0.275,21.893935399995826
20,0.0005938251841850148,0.7499652283841913,0.8943181818181818,0.40003413212926764,0.8881578947368421,0.887655004605687,1.0,0.9455882352941176,2.0914639724712623,0.33289473684210524,20.57408040000155
21,0.0005923829385452652,0.6789376711845398,0.9178409090909091,0.42556512983221756,0.8605263157894737,0.8592109412326803,1.0,0.9102941176470588,1.683356234588121,0.41578947368421054,20.563328600001114
22,0.0005907915988365347,0.7310229301452636,0.8923863636363636,0.5079726965803849,0.8539473684210527,0.852836183835457,0.925,0.9029411764705882,1.2774722053816443,0.531578947368421,20.490228099995875
23,0.0005890519779165858,0.6930954683910716,0.91625,0.34890118664816805,0.8868421052631579,0.8862655193198744,1.0,0.9294117647058824,0.954334158646433,0.6407894736842106,20.512822000004235
24,0.0005871649643853574,0.6711978474530307,0.9225,0.41093348437233973,0.8671052631578947,0.8671192733416874,1.0,0.9102941176470588,0.7423329806641529,0.7105263157894737,20.560424700001022
25,0.000585131522131068,0.7262601002779874,0.9021590909090909,0.49593537983141445,0.843421052631579,0.8440060674261456,0.925,0.8838235294117647,0.5980015800187463,0.7697368421052632,20.51171130000148
26,0.0005829526898378601,0.6873587881435047,0.915,0.5061704955602947,0.8342105263157895,0.8349541565135675,0.95,0.8955882352941177,0.5061478868911141,0.8092105263157895,20.530700600000273
27,0.0005806295804552395,0.7012870596755635,0.9194318181818182,0.46711305128900626,0.8578947368421053,0.8575735816191621,1.0,0.9147058823529411,0.440556696214174,0.8473684210526315,20.540937200006738
28,0.0005781633806295796,0.6832289257916537,0.9201136363636364,0.5181434231369119,0.8355263157894737,0.8318324074161516,0.95,0.8691176470588236,0.399507221736406,0.8723684210526316,20.50891959999717
29,0.0005755553500979822,0.6858868065747348,0.9181818181818182,0.47532003333694056,0.8539473684210527,0.85139002869627,1.0,0.8970588235294118,0.36953630886579814,0.881578947368421,20.532163700001547
30,0.0005728068210448012,0.6702886908704584,0.92125,0.43262995575603685,0.8631578947368421,0.8610137439891666,1.0,0.9044117647058824,0.3508165052062587,0.8921052631578947,20.518304299999727
31,0.0005699191974211625,0.6860403260317716,0.9279545454545455,0.40721953605350697,0.8697368421052631,0.8687328720834888,1.0,0.9088235294117647,0.34137360453605653,0.8960526315789473,20.522961899994698
32,0.0005668939542278249,0.6998886567896063,0.923409090909091,0.34912408433462444,0.8894736842105263,0.8886715066393588,1.0,0.9426470588235294,0.33521981458914907,0.9026315789473685,20.503061399998842
33,0.0005637326367617472,0.6397614667632363,0.9415909090909091,0.4071714702405428,0.8736842105263158,0.8739565706904233,0.975,0.9220588235294118,0.3293987063985122,0.9052631578947369,20.529221499993582
34,0.0005604368598267504,0.6674326937848871,0.9247727272727273,0.3934894809597417,0.8710526315789474,0.8692884153200581,1.0,0.9220588235294118,0.32578851706103273,0.9039473684210526,20.551916599994
35,0.0005570083069086733,0.6392172765731812,0.9426136363636364,0.3535954318548504,0.9026315789473685,0.9019948792275525,1.0,0.95,0.32294681009493376,0.9052631578947369,20.506883100002597
36,0.0005534487293154471,0.6800265064022758,0.925,0.41704095445181194,0.8776315789473684,0.877980718292045,1.0,0.9235294117647059,0.32349660678913716,0.9052631578947369,20.489172900000995
37,0.0005497599452825259,0.6432335172999989,0.9295454545454546,0.4213649548982319,0.85,0.8488902398305183,1.0,0.8985294117647059,0.32452513073620043,0.906578947368421,20.556494500000554
38,0.0005459438390441295,0.6946306963400407,0.9320454545454545,0.4454595459134955,0.8723684210526316,0.8704982255633604,1.0,0.9147058823529411,0.3276689234532808,0.9013157894736842,20.543516799996723
39,0.0005420023598707758,0.676422622312199,0.9347727272727273,0.419864253935061,0.8736842105263158,0.874002759035901,1.0,0.9235294117647059,0.3303065645067315,0.8986842105263158,20.56474580000213
40,0.0005379375210735911,0.6254692120985551,0.9407954545454545,0.40610224981057014,0.875,0.8752546639361853,1.0,0.9294117647058824,0.33047774496831395,0.9,20.529837800000678
41,0.0005337513989759092,0.6580122730948709,0.9425,0.4519059852549904,0.8592105263157894,0.8568939515229198,1.0,0.9,0.331168846707595,0.9,20.529559000002337
42,0.0005294461318526833,0.6893044209480286,0.9157954545454545,0.45956252280034515,0.868421052631579,0.8663486354402256,1.0,0.9,0.33188139231581437,0.8947368421052632,20.510202599994955
43,0.0005250239188382536,0.6756923385099931,0.9181818181818182,0.4642448425292969,0.8421052631578947,0.8416717587925648,1.0,0.8867647058823529,0.3294024009453623,0.8986842105263158,20.520411999998032
44,0.0005204870188030272,0.6528618305379694,0.93625,0.3884172721912986,0.8789473684210526,0.8784728728562439,1.0,0.9367647058823529,0.32874330156727843,0.9,20.518604500000947
45,0.0005158377491996452,0.6714374184608459,0.9289772727272727,0.3730050733214931,0.8973684210526316,0.8972606295226603,1.0,0.9338235294117647,0.3282324132166411,0.9013157894736842,20.551343199993426
46,0.0005110784848792257,0.6409407087889585,0.9486363636363636,0.39359323539231955,0.8802631578947369,0.879686490851611,1.0,0.9220588235294118,0.329103127906197,0.9013157894736842,20.53499770000053
47,0.0005062116568782877,0.6629095354947176,0.9372727272727273,0.4133829223482232,0.8657894736842106,0.8653096992485123,1.0,0.9220588235294118,0.33146450676416095,0.8934210526315789,20.688739900004293
48,0.0005012397511769754,0.6394823228229176,0.9379545454545455,0.3913450523426658,0.8881578947368421,0.887189402934132,1.0,0.9279411764705883,0.3333136313839963,0.8934210526315789,20.546119999999064
49,0.0004961653074292177,0.623409742008556,0.9510227272727273,0.4542852897393076,0.843421052631579,0.8417839017182643,1.0,0.9014705882352941,0.33306246274395995,0.8921052631578947,20.51776339999924
50,0.0004909909176654702,0.6685505932027643,0.9365909090909091,0.44452831964743766,0.8473684210526315,0.8442123401408429,1.0,0.8941176470588236,0.33572592547065333,0.8934210526315789,20.561273500003153
51,0.00048571922496870357,0.6679284977912903,0.9236363636363636,0.4161631929247003,0.881578947368421,0.8803091372048811,1.0,0.9294117647058824,0.33638193136767336,0.8921052631578947,20.520808499997656
52,0.00048035292212431514,0.6713098099014976,0.9268181818181818,0.47328860540139045,0.8578947368421053,0.8570789186626161,1.0,0.9044117647058824,0.337889901274129,0.8947368421052632,20.553639899997506
53,0.0004748947502446508,0.6254905681176619,0.9447727272727273,0.47709218075400905,0.8513157894736842,0.8489766935165216,1.0,0.8911764705882353,0.33773402257969504,0.8947368421052632,20.50302119999833
54,0.00046934749736884306,0.6644783967191523,0.9381818181818182,0.4872813971419083,0.8526315789473684,0.8520810732831231,0.975,0.8955882352941177,0.3398557970398351,0.8921052631578947,20.546433600000455
55,0.0004637139970386777,0.6232904795083133,0.9556818181818182,0.38502502378664516,0.8802631578947369,0.8804148377343782,1.0,0.9294117647058824,0.33936735422987685,0.8947368421052632,20.552515900002618
56,0.000457997126851218,0.6011599014022133,0.9522727272727273,0.435637786200172,0.8657894736842106,0.86572544184217,0.975,0.9073529411764706,0.3397563742963891,0.8934210526315789,20.490676400004304
57,0.00045219980698892607,0.6587716659632596,0.9385227272727272,0.43541207627246253,0.8657894736842106,0.865311065273804,0.95,0.913235294117647,0.34060488311867965,0.8960526315789473,20.483373199997004
58,0.0004463249987280305,0.6011253715645183,0.9554545454545454,0.4508950086016404,0.8644736842105263,0.8640812661296733,0.95,0.9176470588235294,0.3414462450303529,0.8947368421052632,20.557631000003312
59,0.000440375702925904,0.6036751729791815,0.9529545454545455,0.40249164073090804,0.8697368421052631,0.8692733424667187,1.0,0.9102941176470588,0.3397553283917277,0.8947368421052632,20.58845409999776
60,0.0004343549584882226,0.6625487739389593,0.9402272727272727,0.37566638808501396,0.8907894736842106,0.8907617069296874,1.0,0.9279411764705883,0.3384378128930142,0.8973684210526316,20.5816657999967
61,0.00042826584081669025,0.6386905878240412,0.9438636363636363,0.4080329073102851,0.875,0.8734875027724543,1.0,0.9176470588235294,0.3357459225152668,0.8960526315789473,20.553650399997423
62,0.00042211146023812037,0.6124514352191578,0.9518181818181818,0.4009713012921183,0.8881578947368421,0.8887237692798831,0.975,0.9264705882352942,0.3335625096371299,0.8947368421052632,20.560173300000315
63,0.0004158949604156783,0.6470280439203435,0.9397727272727273,0.4268666723841115,0.868421052631579,0.8694972630128918,0.975,0.9205882352941176,0.33572873535909153,0.8934210526315789,20.54854239999986
64,0.0004096195167430953,0.6330011840300126,0.9528409090909091,0.3667375671236139,0.8802631578947369,0.8803036809909661,1.0,0.9382352941176471,0.33582346062911184,0.8973684210526316,20.53900739999517
65,0.0004032883347226749,0.6294237880273299,0.9551136363636363,0.3769457760610079,0.8947368421052632,0.8945109910032943,1.0,0.9367647058823529,0.33422867593012356,0.8986842105263158,20.57079320000048
66,0.0003969046483279189,0.6354738716645675,0.9418181818181818,0.4161001114468825,0.8763157894736842,0.8764948879717217,0.975,0.9191176470588235,0.33357997756255303,0.8986842105263158,20.521712300003855
67,0.0003904717183516109,0.605969504443082,0.9665909090909091,0.39856414763551007,0.8776315789473684,0.877692825346862,0.975,0.9279411764705883,0.3330117476613898,0.9013157894736842,20.527306999996654
68,0.0003839928307402005,0.6245397002046759,0.9582954545454545,0.4413612368859743,0.8592105263157894,0.8598292175433816,0.975,0.9073529411764706,0.33486593114702323,0.8986842105263158,20.53111500000523
69,0.00037747129491533916,0.6429176642678001,0.9489772727272727,0.38975119308421485,0.8776315789473684,0.876990718157856,1.0,0.9161764705882353,0.3370250510542016,0.8986842105263158,20.50742750000063
70,0.0003709104420834241,0.6018500406091863,0.9625,0.4188152121870141,0.868421052631579,0.8688075135039357,0.975,0.9058823529411765,0.33677271855504887,0.8960526315789473,20.57077329999447
71,0.00036431362353401533,0.6144219842824069,0.9577272727272728,0.39843444855589616,0.8802631578947369,0.8804398692792675,1.0,0.9235294117647059,0.33647830392185013,0.8960526315789473,20.510973699994793
72,0.0003576842089279937,0.6555517041683196,0.9557954545454546,0.38265633896777507,0.8776315789473684,0.8774987894324575,1.0,0.9220588235294118,0.3380405620524758,0.8960526315789473,20.48380840000027
73,0.0003510255845763356,0.6416674568436362,0.9402272727272727,0.36786129694235953,0.8868421052631579,0.8865716692949672,1.0,0.9338235294117647,0.3381782923874102,0.8960526315789473,20.5727149000013
74,0.0003443411517103819,0.6264977119185707,0.9544318181818182,0.35735421337579426,0.9026315789473685,0.9028232062992494,1.0,0.9382352941176471,0.3382214194849918,0.8960526315789473,20.488121700000193
75,0.0003376343247444856,0.5857435314221816,0.96375,0.41752387473457736,0.8671052631578947,0.8656127389385524,1.0,0.9294117647058824,0.33508308780820745,0.8986842105263158,20.507764200003294
76,0.0003309085295319264,0.5881206254525618,0.9576136363636364,0.38737672520311256,0.8921052631578947,0.8937942667989137,0.975,0.9220588235294118,0.3316491387392345,0.9026315789473685,20.549123800003144
77,0.0003241672016149815,0.6185443128239024,0.9490909090909091,0.42220113669571124,0.8631578947368421,0.8637760694950952,0.95,0.9191176470588235,0.3297994510123604,0.9026315789473685,20.602883100000327
78,0.00031741378447004763,0.6510880517959595,0.9380681818181819,0.4473489469603488,0.8605263157894737,0.8582555616296401,1.0,0.9102941176470588,0.32919648854356065,0.9026315789473685,20.51728010000079
79,0.00031065172774871004,0.6570682752132416,0.94875,0.38284149075809276,0.8855263157894737,0.8861324575515541,0.95,0.9367647058823529,0.32981005248270534,0.9013157894736842,20.578572699996585
80,0.00030388448551565744,0.5874211231144992,0.9660227272727273,0.3737867248685736,0.8947368421052632,0.8941077810181828,1.0,0.9367647058823529,0.3302132044967852,0.9013157894736842,20.52544960000523
81,0.0002971155144843426,0.5979691286520524,0.956590909090909,0.40797805754761945,0.8776315789473684,0.8769953776799747,0.975,0.9220588235294118,0.33211091631337214,0.9052631578947369,20.56830180000543
82,0.0002903482722512899,0.5949727370522239,0.9589772727272727,0.3755865809164549,0.8828947368421053,0.8822862963039844,1.0,0.9367647058823529,0.33230631069133154,0.9039473684210526,20.615113399995607
83,0.0002835862155299524,0.5966559035127813,0.9606818181818182,0.3926301651879361,0.8907894736842106,0.8908744700714604,1.0,0.9308823529411765,0.3300951910646338,0.9052631578947369,20.66223980000359
84,0.00027683279838501855,0.5641405245390805,0.9715909090909091,0.5045226642959997,0.8394736842105263,0.8392889369958512,0.95,0.9,0.32992746359423586,0.906578947368421,20.567922599999292
85,0.00027009147046807365,0.6184803812070326,0.9525,0.36705768014255324,0.8907894736842106,0.8901102601313203,1.0,0.9323529411764706,0.3332370958830181,0.9052631578947369,20.641060100002505
86,0.0002633656752555145,0.580462814135985,0.9661363636363637,0.3723125260127218,0.8960526315789473,0.89641097099379,0.975,0.9264705882352942,0.33408468208814923,0.9026315789473685,20.529211699998996
87,0.00025665884828961807,0.5885977001623673,0.9634090909090909,0.4026335465280633,0.8710526315789474,0.8702974744102241,1.0,0.9235294117647059,0.3353795493903913,0.9,20.5668377999973
88,0.00024997441542366436,0.6447274966673417,0.94,0.4089139844241895,0.881578947368421,0.8815713769548431,0.975,0.925,0.3367517574837333,0.9026315789473685,20.5426651999951
89,0.00024331579107200632,0.5957631002772938,0.9572727272727273,0.36046343445777895,0.8947368421052632,0.8943289696304497,1.0,0.9382352941176471,0.33757685673864263,0.9013157894736842,20.53821720000269
90,0.0002366863764659847,0.5999196765639565,0.9617045454545454,0.3472538185747046,0.8947368421052632,0.8947422898393095,1.0,0.9352941176470588,0.3367726373045068,0.9,20.516724399996747
91,0.0002300895579165759,0.6107360066067089,0.9622727272727273,0.3793618857860565,0.8868421052631579,0.8867054193213484,1.0,0.9426470588235294,0.33587092255291184,0.8986842105263158,20.534744800002954
92,0.0002235287050846607,0.576491234736009,0.9690909090909091,0.3756230398228294,0.8868421052631579,0.8867555883614058,1.0,0.9279411764705883,0.33577511498802587,0.8986842105263158,20.530499000000418
93,0.00021700716925979942,0.5700240937146274,0.9675,0.39185855357270494,0.8828947368421053,0.8827011530500602,1.0,0.9294117647058824,0.336475974635074,0.8973684210526316,20.499165100001846
94,0.00021052828164838913,0.615757458968596,0.9551136363636363,0.37648307430116756,0.8894736842105263,0.8891586454613722,1.0,0.9441176470588235,0.3383100813940952,0.8947368421052632,20.503969499994128
95,0.00020409535167208103,0.617914527871392,0.9557954545454546,0.3668791915241041,0.8842105263157894,0.883337850241545,1.0,0.9352941176470588,0.34066684214692367,0.8921052631578947,20.514233000001695
96,0.00019771166527732506,0.6116556282476945,0.9620454545454545,0.40052209151418583,0.8802631578947369,0.8800516978585469,1.0,0.925,0.3426137830081739,0.8907894736842106,20.523619400002644
97,0.00019138048325690465,0.6164308754964308,0.9561363636363637,0.38160902293104876,0.8894736842105263,0.8889382873951595,1.0,0.9352941176470588,0.3444442752160524,0.8907894736842106,20.5423673999976
98,0.00018510503958432174,0.5971891854026101,0.9603409090909091,0.4007095333776976,0.881578947368421,0.8815153171520415,1.0,0.9294117647058824,0.34591947856702304,0.8907894736842106,20.51826930000243
99,0.0001788885397618797,0.6023487415096976,0.9670454545454545,0.3774908363819122,0.8828947368421053,0.8834090519435792,1.0,0.9264705882352942,0.34717495472807636,0.8881578947368421,20.542517800000496
100,0.00017273415918330973,0.611657495281913,0.9631818181818181,0.3873713044743789,0.8776315789473684,0.8772568588990168,0.975,0.9323529411764706,0.3474050412052556,0.8894736842105263,20.514295900000434
101,0.00016664504151177735,0.6226348810846155,0.956590909090909,0.4121988396895559,0.8671052631578947,0.867428042630625,1.0,0.9235294117647059,0.34799210335078995,0.8894736842105263,20.57017690000066
102,0.00016062429707409598,0.5636984341794794,0.9772727272727273,0.40651670851205524,0.8776315789473684,0.8767589831495943,1.0,0.925,0.3477973527029941,0.8894736842105263,20.579401999995753
103,0.00015467500127196946,0.5755819613283331,0.9730681818181818,0.3703687561185736,0.8776315789473684,0.8772016750021852,1.0,0.9338235294117647,0.34766203259166917,0.8934210526315789,20.52460019999853
104,0.0001488001930110739,0.5531860535795038,0.975909090909091,0.37041838796515214,0.8855263157894737,0.8853698531481126,1.0,0.9176470588235294,0.3465521558334953,0.8934210526315789,20.5414499000035
105,0.00014300287314878202,0.5814742703871294,0.9657954545454546,0.4200741419666692,0.8710526315789474,0.8712487233511966,0.95,0.9073529411764706,0.3487848372835862,0.8907894736842106,20.529070699994918
106,0.00013728600296132235,0.5634905182231557,0.977840909090909,0.4177232431738,0.8802631578947369,0.8793471100699909,0.975,0.9338235294117647,0.35346575348000775,0.8894736842105263,20.504296999999497
107,0.00013165250263115694,0.5951091469417918,0.9696590909090909,0.4045975534539474,0.8763157894736842,0.8760870715820419,0.975,0.9382352941176471,0.3572814938269163,0.8868421052631579,20.509258100006264
108,0.0001261052497553492,0.5684414094144647,0.9806818181818182,0.39936439128298507,0.8802631578947369,0.8805511799132555,0.975,0.9323529411764706,0.360383204096242,0.8868421052631579,20.51493759999721
109,0.0001206470778756849,0.5941093492507935,0.9554545454545454,0.4168604794301485,0.8776315789473684,0.878147881784899,0.95,0.9338235294117647,0.36032048306967085,0.8907894736842106,20.499191900002188
110,0.0001152807750312964,0.6001522798971697,0.9756818181818182,0.4034144751335445,0.8828947368421053,0.8837601865508704,0.975,0.9220588235294118,0.36108623272494267,0.8907894736842106,20.70975489999546
111,0.00011000908233452982,0.5980225708267906,0.9667045454545454,0.3832096306901229,0.8802631578947369,0.879681899172178,1.0,0.9411764705882353,0.36054342200881556,0.8868421052631579,20.692077200001222
112,0.00010483469257078224,0.580269980322231,0.9709090909090909,0.3774165109584206,0.8763157894736842,0.8764012050229623,1.0,0.9411764705882353,0.360292535079153,0.8868421052631579,20.739588900003582
113,9.976024882302456e-05,0.6116394543647766,0.9675,0.3813983324326967,0.8842105263157894,0.8839710539821178,1.0,0.9308823529411765,0.36183303061284516,0.8881578947368421,20.739836799999466
114,9.478834312171236e-05,0.5851751431551847,0.9701136363636363,0.40126326648812544,0.8763157894736842,0.8766765511907133,1.0,0.925,0.36365308259662826,0.8868421052631579,20.741939899999124
115,8.992151512077429e-05,0.5734444380890239,0.9673863636363637,0.3803545506376969,0.8828947368421053,0.882353410694517,1.0,0.9352941176470588,0.36482495728291964,0.8868421052631579,20.65147459999571
116,8.516225080035476e-05,0.588851687041196,0.9573863636363636,0.3912754265885604,0.8828947368421053,0.8833344308382965,1.0,0.9264705882352942,0.36420504827248423,0.8855263157894737,20.715653499995824
117,8.051298119697266e-05,0.5823069245165045,0.9768181818181818,0.3865904161804601,0.8855263157894737,0.8854790401679313,1.0,0.9338235294117647,0.36410683173882336,0.8828947368421053,20.70988860000216
118,7.597608116174637e-05,0.5612603534351696,0.9789772727272728,0.3964014947414398,0.8855263157894737,0.8852529512940681,1.0,0.9235294117647059,0.3646284398279692,0.8842105263157894,20.691741499998898
119,7.155386814731662e-05,0.5788956742936915,0.9648863636363636,0.3809261922773562,0.8934210526315789,0.8936834543276214,0.975,0.9352941176470588,0.3642854389391447,0.8828947368421053,20.70556470000156
120,6.724860102409081e-05,0.6161919862573797,0.9694318181818182,0.3885494423540015,0.8868421052631579,0.8872939208554808,0.975,0.9235294117647059,0.36486189992804274,0.8855263157894737,20.6388306000008
121,6.306247892640888e-05,0.5675311530720104,0.9726136363636364,0.35862784134714226,0.8881578947368421,0.8884647302406032,1.0,0.9352941176470588,0.36446123719215395,0.8855263157894737,20.684859900000447
122,5.899764012922409e-05,0.5740879618037831,0.9705681818181818,0.39676730601411114,0.8789473684210526,0.8790259273893277,1.0,0.9279411764705883,0.3641355812549591,0.8828947368421053,20.702072699998098
123,5.5056160955870474e-05,0.5558769709413702,0.9677272727272728,0.39627308139675543,0.8710526315789474,0.8715484831058685,0.975,0.9279411764705883,0.3646934920235684,0.8868421052631579,20.717900000003283
124,5.1240054717474066e-05,0.5771887313235889,0.9701136363636363,0.38515616937687525,0.8907894736842106,0.890758752602216,1.0,0.9352941176470588,0.3656292554579283,0.8855263157894737,20.675117499995395
125,4.755127068455278e-05,0.5597271181236614,0.9701136363636363,0.3815603146427556,0.8842105263157894,0.8843403541155258,0.975,0.9411764705882353,0.3658799011456339,0.8881578947368421,20.714964700004202
126,4.399169309132677e-05,0.5890212678909301,0.9614772727272727,0.3772107576069079,0.8894736842105263,0.8898321744378072,0.975,0.9352941176470588,0.3655072657685531,0.8894736842105263,20.67818350000016
127,4.0563140173249585e-05,0.6115677074952559,0.96125,0.379218413014161,0.8842105263157894,0.8842315143685504,0.975,0.9382352941176471,0.36611207723617556,0.8881578947368421,20.674565499997698
128,3.726736323825278e-05,0.5682910691608082,0.97,0.38529116981907896,0.881578947368421,0.8820303487047655,0.975,0.9279411764705883,0.3668783890573602,0.8894736842105263,20.731194599997252
129,3.41060457721751e-05,0.5543053197860718,0.9707954545454546,0.3867193120090585,0.8855263157894737,0.8861444650465371,0.975,0.9279411764705883,0.36673583953004135,0.8907894736842106,20.64438820000214
130,3.1080802578837415e-05,0.6114152102036909,0.9621590909090909,0.3922750374204234,0.8881578947368421,0.8886803006277398,0.975,0.9323529411764706,0.36891889023153407,0.8907894736842106,20.73229210000136
131,2.8193178955198895e-05,0.5864035426486622,0.9706818181818182,0.38082138895988465,0.8842105263157894,0.8842641446921501,0.975,0.9338235294117647,0.36989280267765645,0.8907894736842106,20.517816200001107
132,2.544464990201774e-05,0.587333615584807,0.9768181818181818,0.37119759070245845,0.8934210526315789,0.8935321076558178,0.975,0.9397058823529412,0.37117140936224086,0.8907894736842106,20.50756309999997
133,2.283661937042025e-05,0.5708365017717535,0.9756818181818182,0.37912702058490955,0.8921052631578947,0.8922019163589953,0.975,0.9397058823529412,0.3715877330616901,0.8907894736842106,20.51169249999657
134,2.0370419544760518e-05,0.578623339804736,0.9671590909090909,0.3785005266729154,0.8881578947368421,0.8887377856407476,0.975,0.9338235294117647,0.3707878517477136,0.8921052631578947,20.543726199997764
135,1.804731016213988e-05,0.599216046224941,0.9667045454545454,0.3904498453203,0.8855263157894737,0.8859182642396934,0.975,0.9367647058823529,0.37206967002467106,0.8907894736842106,20.54768999999942
136,1.5868477868931964e-05,0.5706461402502927,0.975,0.394969337864926,0.8868421052631579,0.8874331085808678,0.975,0.9264705882352942,0.37310758860487686,0.8881578947368421,20.576174699999683
137,1.3835035614642541e-05,0.5658531121774153,0.975909090909091,0.3857599355672535,0.8842105263157894,0.884660827757334,0.975,0.9352941176470588,0.373931884295062,0.8868421052631579,20.534672000001592
138,1.1948022083414199e-05,0.5818674573031338,0.9686363636363636,0.37627844528148047,0.8894736842105263,0.8893576211025277,0.975,0.9367647058823529,0.3746138727978656,0.8868421052631579,20.493662900000345
139,1.0208401163465185e-05,0.600516884543679,0.9667045454545454,0.37277719503954837,0.8855263157894737,0.8854417453902881,1.0,0.9367647058823529,0.3756944352074673,0.8881578947368421,20.5346028999993
140,8.617061454734755e-06,0.5822248582406477,0.9715909090909091,0.378972022470675,0.8921052631578947,0.891850030639987,1.0,0.9352941176470588,0.3761860091435282,0.8855263157894737,20.559991100002662
141,7.1748158149852224e-06,0.6027705576203086,0.9770454545454546,0.40036219515298543,0.8842105263157894,0.884349020037798,0.975,0.9294117647058824,0.377254204530465,0.8855263157894737,20.503325699995912
142,5.882400944593751e-06,0.5783103703368794,0.9760227272727273,0.37836649072797673,0.8894736842105263,0.8895908676020703,0.975,0.9352941176470588,0.37789523444677653,0.8855263157894737,20.53544580000016
143,4.740477010244959e-06,0.5976091591878371,0.9780681818181818,0.39278604576462195,0.8894736842105263,0.8897063853401617,0.975,0.9323529411764706,0.37864861770680075,0.8855263157894737,20.531577000001562
144,3.7496273077172435e-06,0.5911318811503323,0.9648863636363636,0.38295344271157916,0.8855263157894737,0.8858940608961466,0.975,0.9323529411764706,0.37924089980752845,0.8842105263157894,20.574414699993213
145,2.9103579639347222e-06,0.5811292125961998,0.9690909090909091,0.3857914979520597,0.8842105263157894,0.8846094203736996,0.975,0.9338235294117647,0.37981109572084326,0.8842105263157894,20.646788600002765
146,2.223097678437247e-06,0.588773773800243,0.97125,0.4014578573013607,0.881578947368421,0.8818862485950673,0.975,0.9323529411764706,0.3806394879755221,0.8842105263157894,20.555894199998875
147,1.6881975044002091e-06,0.6028057518872347,0.9605681818181818,0.3914411850665745,0.8855263157894737,0.8858126373990803,0.975,0.9338235294117647,0.3812876649593052,0.8842105263157894,20.511611200003244
148,1.3059306693162125e-06,0.571248290755532,0.9623863636363637,0.3824543204746748,0.8868421052631579,0.8869088775267775,0.975,0.9352941176470588,0.3816424725871337,0.8842105263157894,20.522551699999894
149,1.0764924354303636e-06,0.6013358027284795,0.9571590909090909,0.39431746617743846,0.8842105263157894,0.8844020851856673,0.975,0.9308823529411765,0.38202562787030875,0.8842105263157894,20.501957100001164
150,1e-06,0.5808199214935302,0.975909090909091,0.390888815961386,0.8868421052631579,0.8869713807344836,0.975,0.9323529411764706,0.3826068278990294,0.8842105263157894,20.535110800003167
