epoch,lr,train_loss,train_accuracy,val_loss,val_accuracy,val_macro_f1,val_trial_accuracy,val_k3,ema_loss,ema_accuracy,seconds
1,5.9999999999999995e-05,1.3170448038794778,0.5093181818181818,0.9083084896991127,0.6671052631578948,0.6541902839122394,0.85,0.7161764705882353,1.6102192100725676,0.2,14.225687300000573
2,0.00011999999999999999,1.0738569849187678,0.6729545454545455,0.5590184475246228,0.7973684210526316,0.7963978315312263,0.975,0.8867647058823529,1.6167711722223381,0.2,14.115372499996738
3,0.00018,0.9522249976071444,0.7573863636363637,0.4176744774768227,0.8460526315789474,0.8466249806487014,1.0,0.913235294117647,1.6368421065179926,0.2,14.114560200003325
4,0.00023999999999999998,0.8693512773513794,0.81375,0.5575296998023986,0.8,0.8001793383952307,0.95,0.8544117647058823,1.6796772203947368,0.2,14.118769900000188
5,0.0003,0.8736289150064642,0.8202272727272727,0.41704933580599335,0.8526315789473684,0.8527342121109346,1.0,0.9235294117647059,1.7460359253381428,0.2,14.096422599999642
6,0.00035999999999999997,0.8656174596873196,0.8245454545454546,0.4100026996512162,0.8710526315789474,0.870646972464491,1.0,0.9191176470588235,1.8778281782802781,0.2,14.095790400002443
7,0.00042,0.8143493713032116,0.8442045454545455,0.5177945999722732,0.8144736842105263,0.8126556662487741,1.0,0.8529411764705882,2.0478785483460675,0.2,14.081684199998563
8,0.0004799999999999999,0.8421566785465587,0.8338636363636364,0.4011633791421589,0.8723684210526316,0.8713057289335391,1.0,0.9352941176470588,2.2579429234329025,0.2,14.118940799999109
9,0.00054,0.8102640680833296,0.8507954545454546,0.48158039262420255,0.8315789473684211,0.8375408340732686,0.975,0.8955882352941177,2.5453651832906825,0.2,14.089276499995322
10,0.0005999999999999998,0.8026639825647528,0.8634090909090909,0.500449634225745,0.8263157894736842,0.8192641336060372,0.925,0.8823529411764706,2.857453516596242,0.2,14.063443300001381
11,0.0006,0.7910902057994496,0.8667045454545454,0.5104083425120304,0.8315789473684211,0.8272814090193629,1.0,0.8897058823529411,3.127321584130588,0.2,14.086978100000124
12,0.0005999235075645696,0.7549854673038829,0.8740909090909091,0.36213888902413216,0.8894736842105263,0.8880710594464573,1.0,0.9308823529411765,3.42534147579419,0.2,14.143118700005289
13,0.0005996940693306837,0.7834988624399358,0.8752272727272727,0.3594349923886751,0.9013157894736842,0.9012320535813128,1.0,0.9367647058823529,3.5963472065172697,0.2,14.09257670000079
14,0.0005993118024955998,0.756146605014801,0.8884090909090909,0.39588482458340496,0.8657894736842106,0.8686765537984806,1.0,0.9117647058823529,3.6663697093725203,0.2,14.093969699999434
15,0.0005987769023215627,0.7127249403433367,0.8936363636363637,0.43933356341562774,0.8657894736842106,0.8660544040780384,1.0,0.9117647058823529,3.74424173463332,0.2,14.107627400000638
16,0.0005980896420360653,0.7119020667943088,0.8977272727272727,0.5468260918792925,0.8171052631578948,0.805103521425013,0.9,0.8529411764705882,3.8961071614372105,0.2,14.097025600000052
17,0.0005972503726922827,0.7530917064710096,0.895,0.3444975802772923,0.9,0.9000630366911174,1.0,0.9455882352941176,3.9844249524568256,0.2,14.074889899995469
18,0.0005962595229897549,0.7394459089365872,0.9028409090909091,0.4671709644167047,0.8631578947368421,0.8569009166536811,0.975,0.9161764705882353,3.9956334164268092,0.2,14.097531100000197
19,0.0005951175990554061,0.6772708515687422,0.9188636363636363,0.3576836833828374,0.8947368421052632,0.8956152747383047,1.0,0.9441176470588235,3.9455380087620333,0.2,14.082648600000539
20,0.0005938251841850148,0.7089514589309692,0.9089772727272727,0.4478171511700279,0.8631578947368421,0.8614370538547244,1.0,0.9058823529411765,3.8655116831785756,0.2,14.068197300002794
21,0.0005923829385452652,0.6929449931058017,0.9146590909090909,0.5655461355259545,0.8078947368421052,0.7936890607224627,0.9,0.85,3.805900412954782,0.2,14.075917900001514
22,0.0005907915988365347,0.7020696234703064,0.9127272727272727,0.4535261863156369,0.8447368421052631,0.8426872656128379,1.0,0.9338235294117647,3.788349834711928,0.2,14.078583599999547
23,0.0005890519779165858,0.6841822468150746,0.9228409090909091,0.38138311473946823,0.8710526315789474,0.8693607155751406,1.0,0.9308823529411765,3.8254510178377754,0.2,14.07856389999506
24,0.0005871649643853574,0.665548881183971,0.9273863636363636,0.5142004315790377,0.8289473684210527,0.8283299063085845,0.95,0.8632352941176471,3.7436576440146094,0.2,14.122095400001854
25,0.000585131522131068,0.6812959458611229,0.9201136363636364,0.41685811061608163,0.8763157894736842,0.8770089953435007,1.0,0.913235294117647,3.6522452103464227,0.2,14.08523669999704
26,0.0005829526898378601,0.6539664946902882,0.93,0.3803282082080841,0.8763157894736842,0.8753528215497811,1.0,0.9308823529411765,3.5194316663240133,0.20394736842105263,14.096681399998488
27,0.0005806295804552395,0.6841679421338168,0.9188636363636363,0.5160552980084169,0.8157894736842105,0.8158138060372586,0.975,0.8558823529411764,3.449541353081402,0.20921052631578949,14.091633500000171
28,0.0005781633806295796,0.6569429382410916,0.9373863636363636,0.47578803551824467,0.843421052631579,0.8440962864964915,1.0,0.875,3.336224807014591,0.2131578947368421,14.06268490000366
29,0.0005755553500979822,0.663037687214938,0.93,0.45247754360500136,0.8697368421052631,0.8689168283104518,1.0,0.9294117647058824,3.272054049843236,0.2118421052631579,14.082150300004287
30,0.0005728068210448012,0.6649007922952825,0.9393181818181818,0.5215010787311353,0.8368421052631579,0.8349344087145913,0.975,0.8691176470588236,3.1322104200720786,0.22105263157894736,14.089516799998819
31,0.0005699191974211625,0.6566418043049899,0.9285227272727272,0.4417499332051528,0.8671052631578947,0.8673640736142681,1.0,0.9176470588235294,2.926346869139295,0.2394736842105263,14.047293200004788
32,0.0005668939542278249,0.6436627366326072,0.9351136363636363,0.43987448811531066,0.8618421052631579,0.8615164038916021,1.0,0.9308823529411765,2.638513263824739,0.2513157894736842,14.082495700000436
33,0.0005637326367617472,0.6896412373672832,0.9204545454545454,0.43250274658203125,0.8618421052631579,0.8609323516223949,1.0,0.913235294117647,2.2538213225571733,0.2868421052631579,14.070558699997491
34,0.0005604368598267504,0.6286090714281256,0.9531818181818181,0.437298583984375,0.8631578947368421,0.8610471864226318,1.0,0.9073529411764706,1.8468853197599713,0.36447368421052634,14.113745599999675
35,0.0005570083069086733,0.6516713140227578,0.9377272727272727,0.4372182362958005,0.868421052631579,0.8682381841142547,1.0,0.9308823529411765,1.4772037304545704,0.4473684210526316,14.074556999999913
36,0.0005534487293154471,0.6837243587320501,0.9313636363636364,0.49090704698311655,0.8407894736842105,0.8402944625051569,0.975,0.8764705882352941,1.166059554407471,0.5381578947368421,14.065645599999698
37,0.0005497599452825259,0.6722204784913497,0.9506818181818182,0.6143382828486593,0.7973684210526316,0.7846025847461102,0.9,0.8308823529411765,0.9816977248380059,0.6368421052631579,14.105347900003835
38,0.0005459438390441295,0.6440878806330941,0.9379545454545455,0.4855383612607655,0.8407894736842105,0.8369449518037685,1.0,0.8897058823529411,0.8165713261616857,0.7,14.123243800000637
39,0.0005420023598707758,0.6512404472177679,0.9438636363636363,0.5114154407852575,0.825,0.8254108725535799,1.0,0.8676470588235294,0.6783448073424792,0.7539473684210526,14.084183799997845
40,0.0005379375210735911,0.6544111945412375,0.9357954545454545,0.44463067368457193,0.8526315789473684,0.8538162314472677,1.0,0.9044117647058824,0.5979431953869367,0.8065789473684211,14.086614600004395
41,0.0005337513989759092,0.650034915750677,0.9321590909090909,0.43222033820654215,0.8592105263157894,0.8598046079959119,1.0,0.9058823529411765,0.5235753100169332,0.8223684210526315,14.093832999998995
42,0.0005294461318526833,0.6444774254885587,0.9382954545454546,0.4081900345651727,0.8802631578947369,0.8803833217424684,1.0,0.9308823529411765,0.4763320113483228,0.843421052631579,14.091023400003905
43,0.0005250239188382536,0.639930992343209,0.9429545454545455,0.47256828985716165,0.8565789473684211,0.8522702850105353,1.0,0.913235294117647,0.443070261729391,0.8565789473684211,14.093173100001877
44,0.0005204870188030272,0.6452477925473994,0.9406818181818182,0.44219942626200226,0.8552631578947368,0.8540696122118077,1.0,0.8955882352941177,0.42554787177788583,0.8657894736842106,14.049019500002032
45,0.0005158377491996452,0.6197326290607452,0.9521590909090909,0.46131812585027593,0.8460526315789474,0.8459027833205195,1.0,0.8970588235294118,0.4076220051238411,0.8710526315789474,14.07795780000015
46,0.0005110784848792257,0.6236687053333629,0.9477272727272728,0.436884228493038,0.8605263157894737,0.858216545109028,1.0,0.9058823529411765,0.39991435094883565,0.8776315789473684,14.083387999999104
47,0.0005062116568782877,0.6394679197398099,0.9478409090909091,0.4636993420751471,0.8460526315789474,0.8405543095882718,1.0,0.8955882352941177,0.39133437213144806,0.8868421052631579,14.156379499996547
48,0.0005012397511769754,0.6722334304722872,0.9367045454545454,0.5548326998949051,0.8223684210526315,0.8262425561951087,1.0,0.8514705882352941,0.3866809245787169,0.8776315789473684,14.135103600005095
49,0.0004961653074292177,0.6232474864612926,0.9534090909090909,0.5600879895059686,0.8328947368421052,0.8278962455256739,0.95,0.8779411764705882,0.3784606136773762,0.8842105263157894,14.085912099995767
50,0.0004909909176654702,0.6172137196497484,0.9501136363636363,0.4543928052249708,0.8447368421052631,0.844666377668354,1.0,0.9058823529411765,0.37559392922802975,0.8881578947368421,14.115144100003818
51,0.00048571922496870357,0.6106684450669723,0.9498863636363636,0.5336052347170679,0.8302631578947368,0.8284946087089822,1.0,0.8514705882352941,0.3729278156631871,0.8894736842105263,14.089460999995936
52,0.00048035292212431514,0.6161769489808516,0.9555681818181818,0.49814814423259934,0.8460526315789474,0.8409034197124884,0.95,0.8897058823529411,0.3714574722867263,0.8934210526315789,14.103659599997627
53,0.0004748947502446508,0.5934101372415369,0.9554545454545454,0.46796842782120956,0.8552631578947368,0.8517571523999443,1.0,0.8897058823529411,0.37224229574203493,0.8907894736842106,14.082312500002445
54,0.00046934749736884306,0.61382075548172,0.9484090909090909,0.4973945212991614,0.8355263157894737,0.8325345520995218,1.0,0.861764705882353,0.37103090788188736,0.8947368421052632,14.091893299999356
55,0.0004637139970386777,0.6450610483776439,0.935,0.4384890913963318,0.8605263157894737,0.8588424050806841,1.0,0.9264705882352942,0.37037465886065835,0.8907894736842106,14.113997699998436
56,0.000457997126851218,0.6356274455243891,0.9543181818181818,0.4150209925676647,0.8802631578947369,0.8799574070126294,1.0,0.9264705882352942,0.37199943944027547,0.8868421052631579,14.088202400002046
57,0.00045219980698892607,0.6190777639909224,0.9490909090909091,0.4574393818252965,0.8592105263157894,0.8580910350004907,1.0,0.9044117647058824,0.37019031016450177,0.8907894736842106,14.085541000000376
58,0.0004463249987280305,0.6493916127898476,0.9463636363636364,0.46330992077526295,0.8565789473684211,0.8537644057642024,1.0,0.9044117647058824,0.36920912799082306,0.8907894736842106,14.116841800001566
59,0.000440375702925904,0.5864795634963296,0.9642045454545455,0.39729180398740266,0.881578947368421,0.8803417591266628,1.0,0.9338235294117647,0.36952884134493375,0.8907894736842106,14.041462699999101
60,0.0004343549584882226,0.6019833928888494,0.9646590909090909,0.48415017473070243,0.8473684210526315,0.8442677032589696,1.0,0.8764705882352941,0.36982831547134803,0.8881578947368421,14.097287299999152
61,0.00042826584081669025,0.6510238146781921,0.9459090909090909,0.49365607907897546,0.843421052631579,0.844219813047576,1.0,0.8661764705882353,0.3736385950916692,0.8868421052631579,14.08906030000071
62,0.00042211146023812037,0.6041494876688177,0.9536363636363636,0.4284199363306949,0.875,0.8744125130810101,1.0,0.9176470588235294,0.3729103900884327,0.8868421052631579,14.079274399999122
63,0.0004158949604156783,0.6374421428550373,0.9539772727272727,0.47652853005810786,0.8486842105263158,0.8455954257244503,0.975,0.8955882352941177,0.37189571982935854,0.8894736842105263,14.149080799994408
64,0.0004096195167430953,0.6459623159061779,0.9345454545454546,0.5283709077458633,0.8276315789473684,0.8296324723974626,1.0,0.85,0.3711736167732038,0.8894736842105263,14.083794400001352
65,0.0004032883347226749,0.6249832688678395,0.9578409090909091,0.5026857485896663,0.8355263157894737,0.8240197724199751,0.95,0.8794117647058823,0.3713593338665209,0.8894736842105263,14.140716299996711
66,0.0003969046483279189,0.6538724340092053,0.9455681818181818,0.42690405688787764,0.8789473684210526,0.8761496426815137,1.0,0.9382352941176471,0.37179352546993055,0.8881578947368421,14.09834559999581
67,0.0003904717183516109,0.5948819049921903,0.9552272727272727,0.4701736848605306,0.8631578947368421,0.8597042016173606,1.0,0.9220588235294118,0.3708845433435942,0.8894736842105263,14.096707700002298
68,0.0003839928307402005,0.6321966553818096,0.9606818181818182,0.42608008227850264,0.868421052631579,0.8672037345417503,1.0,0.9147058823529411,0.3741053935728575,0.8881578947368421,14.094680499998503
69,0.00037747129491533916,0.6514346641843969,0.9477272727272728,0.44965774165956596,0.8513157894736842,0.8513343151735278,1.0,0.9,0.37703877530599894,0.881578947368421,14.122404200003075
70,0.0003709104420834241,0.64246928951957,0.9469318181818182,0.5573136979027798,0.8197368421052632,0.8180059442087989,0.95,0.8441176470588235,0.3803452344317185,0.8763157894736842,14.109199599995918
71,0.00036431362353401533,0.6206621063839306,0.9557954545454546,0.5676207702410848,0.8184210526315789,0.8095158859278495,0.95,0.8470588235294118,0.3825594042476855,0.875,14.100378499999351
72,0.0003576842089279937,0.5894655737009915,0.9561363636363637,0.40498476593117966,0.8802631578947369,0.8789609421686677,1.0,0.9308823529411765,0.385299561525646,0.8736842105263158,14.102683199998864
73,0.0003510255845763356,0.6202164453809912,0.9592045454545455,0.43540962683527096,0.8539473684210527,0.8526819647027819,1.0,0.9279411764705883,0.3868655148305391,0.8697368421052631,14.1047297000041
74,0.0003443411517103819,0.5846538414738395,0.9602272727272727,0.4971221933239385,0.8394736842105263,0.8386523380237099,1.0,0.8661764705882353,0.3892132009330549,0.8723684210526316,14.152263800002402
75,0.0003376343247444856,0.634416941729459,0.9589772727272727,0.47105978037181656,0.8618421052631579,0.8599966029604573,1.0,0.9014705882352941,0.3944953927868291,0.8723684210526316,14.17323220000253
76,0.0003309085295319264,0.6105567810752175,0.9567045454545454,0.4165111353522853,0.868421052631579,0.8677093001105197,1.0,0.9323529411764706,0.3965014398097992,0.875,14.216347900000983
77,0.0003241672016149815,0.6108172182603316,0.9570454545454545,0.521320785346784,0.8355263157894737,0.8365508831561017,1.0,0.8720588235294118,0.4006258512798109,0.8710526315789474,14.230301400006283
78,0.00031741378447004763,0.6355789791453968,0.9548863636363636,0.4978324482315465,0.8421052631578947,0.8384449357981852,0.975,0.8823529411764706,0.4029815673828125,0.8736842105263158,14.136792600002082
79,0.00031065172774871004,0.5910864201459017,0.9723863636363637,0.45578388352143134,0.8592105263157894,0.8578744157502969,1.0,0.9147058823529411,0.4036174570259295,0.8697368421052631,14.204491000004055
80,0.00030388448551565744,0.6208397742834958,0.9503409090909091,0.4441535127790351,0.8618421052631579,0.860703095464775,1.0,0.9102941176470588,0.4063405087119655,0.8736842105263158,14.08632000000216
81,0.0002971155144843426,0.5985554710301486,0.9625,0.5213409417553951,0.8407894736842105,0.8387717248661586,1.0,0.8720588235294118,0.4072484057200582,0.875,14.088952099999005
82,0.0002903482722512899,0.6024011537161741,0.9575,0.43450662744672675,0.8697368421052631,0.8705278869754356,1.0,0.9029411764705882,0.40887145901981153,0.8763157894736842,14.090934500003641
83,0.0002835862155299524,0.5902071317759428,0.9696590909090909,0.46378302417303385,0.8631578947368421,0.8630923857857647,1.0,0.9073529411764706,0.4101249287002965,0.8736842105263158,14.108014199999161
84,0.00027683279838501855,0.5979432237148284,0.9640909090909091,0.43495057664419473,0.8657894736842106,0.8646369446659283,1.0,0.9073529411764706,0.4106672594421788,0.8736842105263158,14.11108499999682
85,0.00027009147046807365,0.5823628359491175,0.9635227272727273,0.44257354736328125,0.8526315789473684,0.853452272159777,1.0,0.9014705882352941,0.41118405084860954,0.8723684210526316,14.17039620000287
86,0.0002633656752555145,0.5603273297439922,0.9635227272727273,0.46128724719348707,0.8539473684210527,0.8522551698696681,1.0,0.8970588235294118,0.415434425755551,0.8736842105263158,14.131526999997732
87,0.00025665884828961807,0.6081714057922363,0.9602272727272727,0.4903460050884046,0.8460526315789474,0.8460379736224828,1.0,0.8911764705882353,0.41664950628029673,0.875,14.15635520000069
88,0.00024997441542366436,0.6149371898174286,0.9657954545454546,0.4645331128647453,0.8539473684210527,0.8517272265819493,1.0,0.8985294117647059,0.4177707063524347,0.8710526315789474,14.187662900003488
89,0.00024331579107200632,0.555553491007198,0.9704545454545455,0.47062570672286186,0.8486842105263158,0.8501434141243145,1.0,0.9073529411764706,0.4192081658463729,0.868421052631579,14.127459900002577
90,0.0002366863764659847,0.5989547556096857,0.9584090909090909,0.48375139801125777,0.8526315789473684,0.8514733684883206,1.0,0.8970588235294118,0.4200314976667103,0.8644736842105263,14.081561999999394
91,0.0002300895579165759,0.6146473038196564,0.9611363636363637,0.4596828259919819,0.8592105263157894,0.8581068556991734,1.0,0.9117647058823529,0.4229599002160524,0.8631578947368421,14.074493600004644
92,0.0002235287050846607,0.5742036444490606,0.9681818181818181,0.46578505635261536,0.8657894736842106,0.8662665175834177,0.975,0.9073529411764706,0.4241280006734948,0.8644736842105263,14.114962799998466
93,0.00021700716925979942,0.6115469750491056,0.9647727272727272,0.5520472485768168,0.8342105263157895,0.8300450124304746,0.975,0.861764705882353,0.4270441149410449,0.8657894736842106,14.107085899995582
94,0.00021052828164838913,0.5829088230566545,0.9711363636363637,0.43646248328058346,0.8565789473684211,0.8564866049014921,1.0,0.9117647058823529,0.42862653293107683,0.8644736842105263,14.120074299993576
95,0.00020409535167208103,0.5804364748434587,0.9629545454545455,0.4269745271456869,0.868421052631579,0.8693386664263629,1.0,0.913235294117647,0.4264495055926473,0.8644736842105263,14.08417080000072
96,0.00019771166527732506,0.5747638143192638,0.9748863636363636,0.5489604755451805,0.8236842105263158,0.8162483910732977,1.0,0.8676470588235294,0.43027086853981017,0.8657894736842106,14.067719500002568
97,0.00019138048325690465,0.5830025015094064,0.9675,0.4559910833835602,0.8552631578947368,0.8551879413939332,1.0,0.9161764705882353,0.4330019495989147,0.8644736842105263,14.071679400003632
98,0.00018510503958432174,0.5814171177690679,0.9684090909090909,0.4882929748610446,0.8355263157894737,0.833355654768609,1.0,0.875,0.43402059360554346,0.8644736842105263,14.087884399996256
99,0.0001788885397618797,0.5521688718145544,0.9702272727272727,0.45034725822900473,0.85,0.8490089864401629,1.0,0.9161764705882353,0.433407031234942,0.8592105263157894,14.094590799999423
100,0.00017273415918330973,0.5829345332492482,0.9670454545454545,0.5018129860099994,0.8381578947368421,0.8373750534467772,1.0,0.8911764705882353,0.43635213845654536,0.8552631578947368,14.080416299999342
101,0.00016664504151177735,0.6258036440069025,0.9530681818181819,0.4954994593795977,0.8355263157894737,0.8367186670698998,0.975,0.8794117647058823,0.4379020286233802,0.8552631578947368,14.12038659999962
102,0.00016062429707409598,0.6386707746982574,0.9675,0.4108516486067521,0.8605263157894737,0.859901890772343,1.0,0.9161764705882353,0.4368386519582648,0.8552631578947368,14.15185410000413
103,0.00015467500127196946,0.6484427016431635,0.9538636363636364,0.4564143130653783,0.8552631578947368,0.8543851725524757,1.0,0.9029411764705882,0.43867878066866023,0.8539473684210527,14.129044200002681
104,0.0001488001930110739,0.5859812073274092,0.9627272727272728,0.46326494656111067,0.8513157894736842,0.8497715087622858,1.0,0.8970588235294118,0.43977114934670297,0.8513157894736842,14.117466700001387
105,0.00014300287314878202,0.5667263720252297,0.9714772727272727,0.528485348663832,0.8447368421052631,0.8402911719546889,0.975,0.8720588235294118,0.4424494702565043,0.8513157894736842,14.24778040000092
106,0.00013728600296132235,0.5780041538585317,0.9696590909090909,0.49309515670726173,0.843421052631579,0.8444409677736104,1.0,0.8764705882352941,0.44510963778746754,0.8539473684210527,14.219859400000132
107,0.00013165250263115694,0.5982335607572036,0.96875,0.4291995393602472,0.875,0.8738347756067057,1.0,0.9191176470588235,0.44306512224046807,0.8552631578947368,14.21481440000207
108,0.0001261052497553492,0.5873284313895486,0.9695454545454546,0.4682184319747122,0.8552631578947368,0.8550237021521789,1.0,0.8955882352941177,0.43873716749643027,0.8565789473684211,14.203445500003
109,0.0001206470778756849,0.6164555677500638,0.9646590909090909,0.4407738142891934,0.8565789473684211,0.8542074538818749,1.0,0.9117647058823529,0.43759821904333013,0.8565789473684211,14.179887999998755
110,0.0001152807750312964,0.594161532683806,0.9651136363636363,0.4862490199114147,0.8421052631578947,0.8399444692364041,1.0,0.8823529411764706,0.43906250031370864,0.8592105263157894,14.12012159999722
111,0.00011000908233452982,0.5930985879898071,0.9697727272727272,0.4303129487916043,0.868421052631579,0.8681082449049728,1.0,0.9088235294117647,0.4390832201430672,0.8592105263157894,14.104980099997192
112,0.00010483469257078224,0.5669523299824107,0.9757954545454546,0.4324168136245326,0.8697368421052631,0.8699976386582806,1.0,0.9191176470588235,0.4386842423363736,0.8592105263157894,14.052746900000784
113,9.976024882302456e-05,0.5709328570149161,0.9689772727272727,0.47118128820469507,0.8539473684210527,0.8547161619896736,1.0,0.8926470588235295,0.43895785588967173,0.8592105263157894,14.07114150000416
114,9.478834312171236e-05,0.6111326748674566,0.9720454545454545,0.4528427133434697,0.8657894736842106,0.8659371293777687,1.0,0.9029411764705882,0.44201507631101106,0.8592105263157894,14.069839899995713
115,8.992151512077429e-05,0.5757902322032235,0.9682954545454545,0.4547928656402387,0.868421052631579,0.869301009797355,0.975,0.9117647058823529,0.44522046572283697,0.8592105263157894,14.067248799998197
116,8.516225080035476e-05,0.6158014406941154,0.9484090909090909,0.49063102351991755,0.85,0.8491829235416979,1.0,0.8911764705882353,0.4504407390167839,0.8592105263157894,14.089710400003241
117,8.051298119697266e-05,0.5858355190537192,0.975,0.49648525871728594,0.8539473684210527,0.8533057828599755,1.0,0.8823529411764706,0.4538067469471379,0.8565789473684211,14.08011070000066
118,7.597608116174637e-05,0.5692779614708641,0.9727272727272728,0.49319120614152206,0.8421052631578947,0.8406738160949881,1.0,0.8794117647058823,0.45650433992084705,0.8578947368421053,14.088973899997654
119,7.155386814731662e-05,0.6046543793244795,0.9732954545454545,0.4931357139035275,0.8447368421052631,0.8447529452549277,1.0,0.8852941176470588,0.45880705086808454,0.8565789473684211,14.079940600000555
120,6.724860102409081e-05,0.6044310074502771,0.9579545454545455,0.5093436790140051,0.8394736842105263,0.8390584933708872,1.0,0.8823529411764706,0.46400724618058453,0.8565789473684211,14.04811090000294
121,6.306247892640888e-05,0.5965537095069885,0.9723863636363637,0.5314824145091207,0.8315789473684211,0.83080794333939,1.0,0.8705882352941177,0.4677775323390961,0.8539473684210527,14.083781000001181
122,5.899764012922409e-05,0.5889437103271484,0.9730681818181818,0.46203035147566546,0.8552631578947368,0.8557565976415547,1.0,0.9014705882352941,0.4673025037112989,0.8578947368421053,14.106748299993342
123,5.5056160955870474e-05,0.6060001145709645,0.9619318181818182,0.48965686998869246,0.8460526315789474,0.8457298663842389,1.0,0.8926470588235295,0.4705585683646955,0.8565789473684211,14.061826299999666
124,5.1240054717474066e-05,0.5616174882108514,0.9738636363636364,0.5206943703325171,0.8394736842105263,0.839353282130792,1.0,0.8735294117647059,0.47166145694883244,0.8578947368421053,14.066084499994759
125,4.755127068455278e-05,0.5638354964689775,0.97375,0.48012052837171054,0.8539473684210527,0.8527857344429158,1.0,0.8926470588235295,0.47241243061266447,0.8592105263157894,14.088478699995903
126,4.399169309132677e-05,0.5672340043024583,0.97125,0.4912796833013233,0.8473684210526315,0.8460090907462829,1.0,0.8808823529411764,0.4729184596162093,0.8552631578947368,14.074280799999542
127,4.0563140173249585e-05,0.5820840860496868,0.9679545454545454,0.5099216668229354,0.8381578947368421,0.8370401019363802,1.0,0.8779411764705882,0.4741381187187998,0.8539473684210527,14.08377979999932
128,3.726736323825278e-05,0.5681360653313724,0.9729545454545454,0.4580210644947855,0.8526315789473684,0.8528531389925353,1.0,0.9029411764705882,0.472599311565098,0.8565789473684211,14.079548100002285
129,3.41060457721751e-05,0.5845946021513505,0.9763636363636363,0.465443018549367,0.8526315789473684,0.850966354512131,1.0,0.8911764705882353,0.4701714763515874,0.8565789473684211,14.080673800002842
130,3.1080802578837415e-05,0.5870258398489518,0.9668181818181818,0.47887083354749177,0.8513157894736842,0.8503657384877137,1.0,0.8911764705882353,0.4720568208318008,0.8552631578947368,14.094547100001364
131,2.8193178955198895e-05,0.5586395599625328,0.9810227272727273,0.4946714708679601,0.8473684210526315,0.8462046862454745,1.0,0.8867647058823529,0.47199602691750775,0.8565789473684211,14.082951600001252
132,2.544464990201774e-05,0.5960545000162991,0.9667045454545454,0.5027698708207984,0.843421052631579,0.8438275110950739,1.0,0.888235294117647,0.47285734446425187,0.8526315789473684,14.065032300000894
133,2.283661937042025e-05,0.5955361184206875,0.9722727272727273,0.4891659388416692,0.8513157894736842,0.850031032455752,1.0,0.8867647058823529,0.4740603804588318,0.8539473684210527,14.09433480000007
134,2.0370419544760518e-05,0.5774750023538416,0.9740909090909091,0.4767990121715947,0.8565789473684211,0.8559327064563693,1.0,0.8926470588235295,0.4734905851514716,0.8526315789473684,14.079404399999476
135,1.804731016213988e-05,0.5600794193961404,0.9894318181818181,0.4751615822315216,0.8552631578947368,0.8543597089648756,1.0,0.9029411764705882,0.4740494583782397,0.8552631578947368,14.07538139999815
136,1.5868477868931964e-05,0.5444962068037553,0.9807954545454546,0.4794698608549018,0.8592105263157894,0.8586446546810282,1.0,0.8897058823529411,0.4731259788337507,0.8552631578947368,14.093241800001124
137,1.3835035614642541e-05,0.5969164476611397,0.9677272727272728,0.477994094710601,0.8605263157894737,0.8598787902335978,1.0,0.888235294117647,0.47304856181144717,0.8565789473684211,14.0752250000005
138,1.1948022083414199e-05,0.6045738094503229,0.9651136363636363,0.483709958038832,0.8552631578947368,0.854057821006414,1.0,0.8926470588235295,0.4745423175786671,0.8578947368421053,14.099980999999389
139,1.0208401163465185e-05,0.5687826535918495,0.9755681818181818,0.505461282165427,0.85,0.8486331334079104,1.0,0.8838235294117647,0.4756294645761189,0.8578947368421053,14.077434099999664
140,8.617061454734755e-06,0.5927149284969676,0.9694318181818182,0.4995300296105837,0.8513157894736842,0.850654720383028,1.0,0.8823529411764706,0.47731925594179253,0.8578947368421053,14.052569300001778
141,7.1748158149852224e-06,0.5556117010116577,0.9760227272727273,0.4791011600117934,0.8565789473684211,0.855883301428463,1.0,0.8926470588235295,0.4774885478772615,0.8578947368421053,14.094037599999865
142,5.882400944593751e-06,0.5866576315056194,0.9753409090909091,0.46760454585677697,0.8565789473684211,0.8560434031990688,1.0,0.8955882352941177,0.47820820086880733,0.8578947368421053,14.086288700003934
143,4.740477010244959e-06,0.6083552546934649,0.9676136363636364,0.47537632929651363,0.8552631578947368,0.8543861558380283,1.0,0.8941176470588236,0.478676323200527,0.8552631578947368,14.069445299996005
144,3.7496273077172435e-06,0.5566219260475852,0.9807954545454546,0.48394148977179274,0.8565789473684211,0.8553915254748208,1.0,0.888235294117647,0.47955073369176765,0.8552631578947368,14.06661609999719
145,2.9103579639347222e-06,0.5584660673141479,0.9743181818181819,0.4966150384200247,0.8526315789473684,0.8515680987140959,1.0,0.8823529411764706,0.4800732251844908,0.8552631578947368,14.117685000004712
146,2.223097678437247e-06,0.5453802022066984,0.9782954545454545,0.49727381687415273,0.8473684210526315,0.8456615162797203,1.0,0.8808823529411764,0.4809711653935282,0.8552631578947368,14.112515499997244
147,1.6881975044002091e-06,0.573460870439356,0.9730681818181818,0.4769503138567272,0.8552631578947368,0.8541452313520379,1.0,0.8838235294117647,0.48220214875120865,0.8552631578947368,14.061975500000699
148,1.3059306693162125e-06,0.5891165333444421,0.9719318181818182,0.5018443066822855,0.85,0.8494830545139127,1.0,0.8794117647058823,0.48294830322265625,0.8552631578947368,14.083235799997055
149,1.0764924354303636e-06,0.6006849124214866,0.9719318181818182,0.48703589188425167,0.8539473684210527,0.8532535106243729,1.0,0.8823529411764706,0.4837317212631828,0.8552631578947368,14.098396499997762
150,1e-06,0.5527408038486133,0.9771590909090909,0.49272380533971283,0.8526315789473684,0.8509270773399654,1.0,0.8838235294117647,0.483799904271176,0.8552631578947368,14.073804200001177
