epoch,lr,train_loss,train_accuracy,val_loss,val_accuracy,val_macro_f1,val_trial_accuracy,val_k3,ema_loss,ema_accuracy,seconds
1,5.9999999999999995e-05,2.698359901254827,0.22988636363636364,1.8176980119002493,0.29342105263157897,0.28589851973210595,0.425,0.34852941176470587,1.6107409025493422,0.2,5.879576699997415
2,0.00011999999999999999,2.449972895275463,0.25988636363636364,1.7102625947249563,0.32105263157894737,0.2510502939513244,0.475,0.3720588235294118,1.6111328125,0.2,5.774389600002905
3,0.00018,2.1768479026447642,0.32045454545454544,2.0149144172668456,0.4605263157894737,0.44856988194695885,0.625,0.5588235294117647,1.6111328125,0.2,5.795613499998581
4,0.00023999999999999998,1.9927110281857576,0.37136363636363634,1.2889296205420242,0.48157894736842105,0.43169418109912067,0.525,0.49117647058823527,1.6119140625,0.2,5.763823199995386
5,0.0003,1.886658393686468,0.40625,1.492657608734934,0.4328947368421053,0.36747703928863873,0.575,0.4573529411764706,1.612618212950857,0.2,5.7820342000050005
6,0.00035999999999999997,1.7483517291329125,0.4414772727272727,1.9362949245854428,0.48026315789473684,0.42152814345601375,0.55,0.49117647058823527,1.6142513877467106,0.2,5.789208399997733
7,0.00042,1.5879396126487038,0.5068181818181818,1.1657342182962518,0.6223684210526316,0.6126566847873746,0.75,0.6735294117647059,1.6156378495065788,0.2,5.77787229999376
8,0.0004799999999999999,1.4813723321394487,0.5734090909090909,1.1671415856010035,0.6578947368421053,0.635219615015983,0.775,0.7176470588235294,1.6178261204769737,0.2,5.78168430000369
9,0.00054,1.3638172297044233,0.6070454545454546,0.9304640330766377,0.7026315789473684,0.6911297695271317,0.825,0.725,1.6187885485197369,0.2,5.76864029999706
10,0.0005999999999999998,1.329273169257424,0.6336363636363637,1.0243556687706394,0.7092105263157895,0.7050426020617183,0.925,0.7661764705882353,1.6197548314144736,0.2,5.7734450999996625
11,0.0006,1.2824999306418678,0.6438636363636364,0.9901430544100309,0.7302631578947368,0.7260613357922029,0.975,0.7720588235294118,1.6201852898848683,0.2,5.78177329999744
12,0.0005999235075645696,1.212278939593922,0.6688636363636363,0.9626069257133886,0.75,0.7481879947492341,0.975,0.7970588235294118,1.620703125,0.2,5.785078599998087
13,0.0005996940693306837,1.1860804943604903,0.6731818181818182,1.1343973724465621,0.7328947368421053,0.7329106130047678,0.975,0.7955882352941176,1.6207082685671355,0.2,5.786986200000683
14,0.0005993118024955998,1.1597907309098676,0.6961363636363637,0.6915063632161994,0.7644736842105263,0.7600160110274428,0.975,0.8352941176470589,1.620703125,0.2,5.796592399994552
15,0.0005987769023215627,1.1278665377876975,0.7071590909090909,0.6844254989373056,0.7684210526315789,0.7644607521974485,0.975,0.8514705882352941,1.6197227063931916,0.2,5.761408699996537
16,0.0005980896420360653,1.0861546538092874,0.7256818181818182,0.6770280223143729,0.7723684210526316,0.7678542422361371,0.975,0.85,1.6185546875,0.2,5.756383199994161
17,0.0005972503726922827,1.0166074748472733,0.7468181818181818,0.5735214954928348,0.8052631578947368,0.8052306026938177,1.0,0.8705882352941177,1.6173828125,0.2,5.768741400002909
18,0.0005962595229897549,1.0132757873968645,0.7596590909090909,0.5972907587101585,0.8105263157894737,0.8118688408365827,1.0,0.8838235294117647,1.6166015625,0.2,5.798691199997847
19,0.0005951175990554061,1.024070193117315,0.7596590909090909,0.6349816140375639,0.7960526315789473,0.7968499835297415,0.975,0.8705882352941177,1.615625,0.2,5.802978399995482
20,0.0005938251841850148,1.029432142864574,0.7663636363636364,0.5661302390851473,0.8171052631578948,0.8153854772556599,1.0,0.8911764705882353,1.615234375,0.2,5.770146599999862
21,0.0005923829385452652,0.9926205936345187,0.7821590909090909,0.6032911168901544,0.8026315789473685,0.7998841655852436,0.95,0.8661764705882353,1.6144993807140149,0.2,5.79599409999355
22,0.0005907915988365347,0.978214709108526,0.7878409090909091,0.5869451720463602,0.8197368421052632,0.8201706236256981,1.0,0.8779411764705882,1.6142578125,0.2,5.772062800002459
23,0.0005890519779165858,0.9316170441020619,0.8013636363636364,0.47779265955874795,0.85,0.8503734245711463,1.0,0.9029411764705882,1.6138671875,0.2,5.765661500001443
24,0.0005871649643853574,0.954351448579268,0.7914772727272728,0.4586225500232295,0.8394736842105263,0.8406853378874939,1.0,0.9,1.613671875,0.2,5.755767199996626
25,0.000585131522131068,0.9997180652618408,0.7797727272727273,0.9267657995223999,0.7684210526315789,0.7645379103174649,0.925,0.8279411764705882,1.613671875,0.2,5.788955600000918
26,0.0005829526898378601,0.9467249066179448,0.7943181818181818,0.5023062567961843,0.8618421052631579,0.8614387444221381,1.0,0.913235294117647,1.6138646175986842,0.2,5.766177999998035
27,0.0005806295804552395,0.9778492251309482,0.7840909090909091,0.5942927040551839,0.8210526315789474,0.8197922381822245,0.975,0.8867647058823529,1.6140547902960527,0.2,5.791023600002518
28,0.0005781633806295796,0.9402665890346874,0.8030681818181818,0.5115142922652395,0.8723684210526316,0.8719937427042543,1.0,0.9205882352941176,1.6142578125,0.2,5.776434899999003
29,0.0005755553500979822,0.8902105897123164,0.8273863636363636,0.45816781740439566,0.8592105263157894,0.8596036429678031,1.0,0.925,1.6148758737664475,0.2,5.781944400005159
30,0.0005728068210448012,0.8780803576382724,0.8231818181818182,0.5250351325461738,0.8671052631578947,0.8665627504347073,1.0,0.9147058823529411,1.6152626439144737,0.2,5.809385699998529
31,0.0005699191974211625,0.8591756359013644,0.8345454545454546,0.44518824188332806,0.8671052631578947,0.8676194094302538,1.0,0.9294117647058824,1.615784333881579,0.2,5.778896700001496
32,0.0005668939542278249,0.8668774717504328,0.83125,0.47933788362302276,0.8776315789473684,0.8775933829120032,1.0,0.9294117647058824,1.6160207648026317,0.2,5.795746399999189
33,0.0005637326367617472,0.8648140785910866,0.83125,0.5387346571997592,0.8578947368421053,0.8577358825653703,1.0,0.9161764705882353,1.6162250719572369,0.2,5.787281299999449
34,0.0005604368598267504,0.8713460425897078,0.8304545454545454,0.40596774220466614,0.8868421052631579,0.8875697733927403,1.0,0.9441176470588235,1.6162674753289474,0.2,5.792706799998996
35,0.0005570083069086733,0.867768159346147,0.8394318181818182,0.45789069282381156,0.8789473684210526,0.8797912484649929,1.0,0.9411764705882353,1.615995064534639,0.20789473684210527,5.797833199998422
36,0.0005534487293154471,0.8262023496627807,0.8444318181818182,0.47240482035436127,0.8592105263157894,0.8581996910693027,1.0,0.9220588235294118,1.6154489605050337,0.2,5.785471399998642
37,0.0005497599452825259,0.8476078336889094,0.8356818181818182,0.5090030965052152,0.8618421052631579,0.8621274219919697,1.0,0.9073529411764706,1.6145199424342105,0.2,5.799786999996286
38,0.0005459438390441295,0.8503557807748968,0.8402272727272727,0.4245181861676668,0.875,0.8754884145361018,1.0,0.9352941176470588,1.6135086887761165,0.2,5.774551700000302
39,0.0005420023598707758,0.7805901833014055,0.8681818181818182,0.44736709657468293,0.868421052631579,0.8686693210226675,1.0,0.925,1.6116300871497706,0.2,5.774270899994008
40,0.0005379375210735911,0.8105820521441373,0.8515909090909091,0.4779467927782159,0.8697368421052631,0.871094839421471,1.0,0.9235294117647059,1.608627156207436,0.2,5.78794139999809
41,0.0005337513989759092,0.815593551939184,0.8536363636363636,0.5017892708903865,0.8657894736842106,0.866110629833452,1.0,0.925,1.604490906313846,0.2,5.774998200002301
42,0.0005294461318526833,0.7942745228247209,0.8636363636363636,0.46369360591235914,0.8631578947368421,0.8651768256531879,0.975,0.9176470588235294,1.5988872352399324,0.2,5.798867100005737
43,0.0005250239188382536,0.7426544601267034,0.8759090909090909,0.521057819692712,0.8394736842105263,0.8383916767735368,0.95,0.8955882352941177,1.5911441225754588,0.2,5.78905990000203
44,0.0005204870188030272,0.7913731722398237,0.8514772727272727,0.4093525384601794,0.8855263157894737,0.8872705234597633,1.0,0.9382352941176471,1.5793187153966803,0.2,5.795195499995316
45,0.0005158377491996452,0.8231156236475164,0.8534090909090909,0.4087547923389234,0.8960526315789473,0.8959619600016975,1.0,0.95,1.5626728283731561,0.2,5.791602500001318
46,0.0005110784848792257,0.8103167895837263,0.8636363636363636,0.4336030489520023,0.8907894736842106,0.8908708704939785,1.0,0.9558823529411765,1.54034744940306,0.2,5.773778700000548
47,0.0005062116568782877,0.7520586575161327,0.8786363636363637,0.38125200836282025,0.8973684210526316,0.8975458342118721,1.0,0.9558823529411765,1.5082384592608402,0.2131578947368421,5.772925000004761
48,0.0005012397511769754,0.7571092003042048,0.8738636363636364,0.4673838358176382,0.8710526315789474,0.8707190731930815,1.0,0.9367647058823529,1.4615497789884868,0.2381578947368421,5.815075599995907
49,0.0004961653074292177,0.7834508070078763,0.8685227272727273,0.4478482967928836,0.8907894736842106,0.8898483420231159,1.0,0.9411764705882353,1.3995264950551485,0.30526315789473685,5.74233689999528
50,0.0004909909176654702,0.7240532328865745,0.8829545454545454,0.3893120260615098,0.8894736842105263,0.8897669751043173,1.0,0.9485294117647058,1.3241124184508073,0.39210526315789473,5.760614200000418
51,0.00048571922496870357,0.761757587519559,0.8636363636363636,0.4553601340243691,0.868421052631579,0.8689132797029364,1.0,0.9426470588235294,1.2313935944908543,0.4881578947368421,5.793153700004041
52,0.00048035292212431514,0.7539829926057295,0.8843181818181818,0.4720498957132038,0.8644736842105263,0.8625446568120401,0.975,0.9220588235294118,1.1411492617506729,0.5723684210526315,5.840682799993374
53,0.0004748947502446508,0.7378151674704119,0.8859090909090909,0.397489680428254,0.8881578947368421,0.8874638199601412,1.0,0.9397058823529412,1.0408048937195227,0.6552631578947369,5.787340000002587
54,0.00046934749736884306,0.7319076761332425,0.8904545454545455,0.3790720133404983,0.8894736842105263,0.8892444488467428,1.0,0.9514705882352941,0.9415572317023027,0.7197368421052631,5.774353100001463
55,0.0004637139970386777,0.7551408123970031,0.8801136363636364,0.48473543963934246,0.8868421052631579,0.886593853745285,1.0,0.95,0.8461583178294333,0.7657894736842106,5.798265699995682
56,0.000457997126851218,0.7115074432979931,0.8954545454545455,0.518057328148892,0.8526315789473684,0.8523138854202064,1.0,0.9147058823529411,0.7574564086763482,0.7921052631578948,5.796235200003139
57,0.00045219980698892607,0.6898042418740012,0.9096590909090909,0.38853259180721483,0.8921052631578947,0.8920943527861418,1.0,0.9441176470588235,0.6826695495530178,0.8157894736842105,5.795100400006049
58,0.0004463249987280305,0.7114327190139077,0.8969318181818182,0.4400756766921596,0.8842105263157894,0.8827854893232665,1.0,0.9397058823529412,0.6234132465563322,0.8368421052631579,5.792014899998321
59,0.000440375702925904,0.7029435899040916,0.8984090909090909,0.43945774310513547,0.8763157894736842,0.8761931081989852,0.975,0.9205882352941176,0.5752638961139478,0.8565789473684211,5.780554999997548
60,0.0004343549584882226,0.7462835177508268,0.8881818181818182,0.44893483425441544,0.8842105263157894,0.8834431284439608,1.0,0.9441176470588235,0.5418839294659464,0.8657894736842106,5.793651200001477
61,0.00042826584081669025,0.7385383863882585,0.9027272727272727,0.46546928192439835,0.8789473684210526,0.8775198614935569,1.0,0.9397058823529412,0.512436233382476,0.8802631578947369,5.7728632999933325
62,0.00042211146023812037,0.7079465727372602,0.9084090909090909,0.43631071699293034,0.8710526315789474,0.8708190837993903,1.0,0.9323529411764706,0.4875521603383516,0.8855263157894737,5.807050300005358
63,0.0004158949604156783,0.7039196744832126,0.9068181818181819,0.4372136759130578,0.8631578947368421,0.8630064348564547,1.0,0.9382352941176471,0.4642291028248636,0.8934210526315789,5.778821300002164
64,0.0004096195167430953,0.7422851196202365,0.8892045454545454,0.44051640598397507,0.875,0.8755948064061446,0.975,0.9264705882352942,0.4521515689398113,0.8921052631578947,5.78735880000022
65,0.0004032883347226749,0.7202483726631511,0.9075,0.4772532416017432,0.8697368421052631,0.8691211884960948,1.0,0.9323529411764706,0.4390248351975491,0.8947368421052632,5.753105000003416
66,0.0003969046483279189,0.642388109293851,0.93,0.4265881983857406,0.8763157894736842,0.8757907171682187,1.0,0.9264705882352942,0.42504288428708126,0.8947368421052632,5.784424499994202
67,0.0003904717183516109,0.6869416106830943,0.9152272727272728,0.4394901476408306,0.8789473684210526,0.8780339543465855,1.0,0.9382352941176471,0.4175859156407808,0.8947368421052632,5.7375419000018155
68,0.0003839928307402005,0.7144139185818759,0.9092045454545454,0.3956214515786422,0.8973684210526316,0.8974801166503766,1.0,0.9529411764705882,0.41230557121728595,0.8960526315789473,5.788502499999595
69,0.00037747129491533916,0.6966513698751277,0.9045454545454545,0.4085280568976151,0.8868421052631579,0.88703907893327,1.0,0.9529411764705882,0.40768320184004936,0.8973684210526316,5.804527899999812
70,0.0003709104420834241,0.7140675780989907,0.9084090909090909,0.3766567813722711,0.8828947368421053,0.8830934390558186,1.0,0.9397058823529412,0.40603019281437525,0.9,5.788590600001044
71,0.00036431362353401533,0.6886938298832287,0.9067045454545455,0.43555611121027094,0.8736842105263158,0.8737137761461927,1.0,0.9367647058823529,0.40206057805764045,0.9039473684210526,5.780872199997248
72,0.0003576842089279937,0.6796224717660384,0.9193181818181818,0.44028954568662143,0.868421052631579,0.8687294201141608,1.0,0.9323529411764706,0.39879752711245886,0.9039473684210526,5.782705099998566
73,0.0003510255845763356,0.7107018698345531,0.9078409090909091,0.3969531416893005,0.8986842105263158,0.8984623509455044,1.0,0.9573529411764706,0.39822186859030473,0.9052631578947369,5.776854399999138
74,0.0003443411517103819,0.6917510342597961,0.9117045454545455,0.40846967257951433,0.8763157894736842,0.8767345371809718,1.0,0.9279411764705883,0.39820556640625,0.906578947368421,5.789977100001124
75,0.0003376343247444856,0.6992313248460943,0.91625,0.42303370300092197,0.9039473684210526,0.9037856746962675,1.0,0.9602941176470589,0.3971081388624091,0.9131578947368421,5.777098900005512
76,0.0003309085295319264,0.729593384699388,0.9042045454545454,0.4259568060699262,0.8881578947368421,0.8876181808271554,1.0,0.9382352941176471,0.39933094131319147,0.9144736842105263,5.78058030000102
77,0.0003241672016149815,0.705408777106892,0.91,0.42395846749606886,0.875,0.8742042715817225,1.0,0.9426470588235294,0.3984761297702789,0.9144736842105263,5.782401799995569
78,0.00031741378447004763,0.6859464565190402,0.9155681818181818,0.39035267139735974,0.8960526315789473,0.8955093916467669,1.0,0.9485294117647058,0.396359815409309,0.9118421052631579,5.772256900003413
79,0.00031065172774871004,0.7066436904126947,0.920340909090909,0.44389214954878153,0.875,0.8740257381060423,1.0,0.9411764705882353,0.3954879754468014,0.9118421052631579,5.781290200000512
80,0.00030388448551565744,0.652929521040483,0.9325,0.39333865454322414,0.8921052631578947,0.8921197244866483,1.0,0.95,0.39270124027603553,0.9105263157894737,5.786120299999311
81,0.0002971155144843426,0.6858609527891333,0.91875,0.3739747699938322,0.8973684210526316,0.8971309112801858,1.0,0.9338235294117647,0.39385167140709726,0.9078947368421053,5.784861000000092
82,0.0002903482722512899,0.6672809288718483,0.9271590909090909,0.4009770434153707,0.8921052631578947,0.8919295909838822,1.0,0.9529411764705882,0.3927144910159864,0.9105263157894737,5.7985449000043445
83,0.0002835862155299524,0.6951666932756251,0.9103409090909091,0.3729157303508959,0.9039473684210526,0.9025988176075641,1.0,0.9470588235294117,0.3934530970297362,0.9118421052631579,5.803121099997952
84,0.00027683279838501855,0.6225742288069291,0.9390909090909091,0.4232360858666269,0.8894736842105263,0.888780864604264,1.0,0.9514705882352941,0.38937169031092994,0.9105263157894737,5.790122799997334
85,0.00027009147046807365,0.6305666732788086,0.945,0.39538915659251966,0.8894736842105263,0.8887605113140781,1.0,0.9455882352941176,0.38591123976205527,0.9118421052631579,5.825789200003783
86,0.0002633656752555145,0.6602824742143805,0.935,0.35599369312587537,0.8907894736842106,0.8902255648068312,1.0,0.9588235294117647,0.38424184792920163,0.9131578947368421,5.766914600004384
87,0.00025665884828961807,0.6616829120029103,0.9351136363636363,0.41057947999552674,0.8907894736842106,0.8904187393302433,1.0,0.95,0.3819033980369568,0.9105263157894737,5.786432099994272
88,0.00024997441542366436,0.658515912619504,0.9339772727272727,0.3920427814910286,0.8973684210526316,0.8972568052552369,1.0,0.95,0.38146980781304207,0.9078947368421053,5.785814100003336
89,0.00024331579107200632,0.6210061190345071,0.9427272727272727,0.4076004022046139,0.8921052631578947,0.8919391269825214,1.0,0.9529411764705882,0.37842086051639756,0.9105263157894737,5.805303499997535
90,0.0002366863764659847,0.6478099703788758,0.9384090909090909,0.4006331588092603,0.8960526315789473,0.8949757509318343,1.0,0.9397058823529412,0.3767129998458059,0.9118421052631579,5.780459300003713
91,0.0002300895579165759,0.6509814366427334,0.9385227272727272,0.42131058354126777,0.8842105263157894,0.8832460708857421,1.0,0.9455882352941176,0.37702845554602776,0.9105263157894737,5.782530299999053
92,0.0002235287050846607,0.6404517544399608,0.9398863636363637,0.3824429148121884,0.8947368421052632,0.8940944263927918,1.0,0.9544117647058824,0.37603639301500824,0.9078947368421053,5.79805839999608
93,0.00021700716925979942,0.627698446187106,0.9371590909090909,0.4458253556176236,0.8618421052631579,0.8609408964921828,1.0,0.9205882352941176,0.37656322215732774,0.9092105263157895,5.77749120000226
94,0.00021052828164838913,0.7198918041315946,0.9190909090909091,0.37323965869451825,0.9013157894736842,0.9009554532252366,1.0,0.9529411764705882,0.3807189938269163,0.9092105263157895,5.772089600002801
95,0.00020409535167208103,0.6482031984762712,0.9359090909090909,0.37306221378476995,0.8947368421052632,0.8943537379477468,1.0,0.9573529411764706,0.3798881935445886,0.9105263157894737,5.784515499995905
96,0.00019771166527732506,0.6208268304304643,0.94125,0.39546010964795164,0.8921052631578947,0.8919849830700747,1.0,0.9544117647058824,0.37872700032434964,0.9118421052631579,5.775476800001343
97,0.00019138048325690465,0.6468994671648199,0.9396590909090909,0.4274120525309914,0.881578947368421,0.8811632294071107,1.0,0.9441176470588235,0.37872354513720463,0.9105263157894737,5.803658400000131
98,0.00018510503958432174,0.632776726809415,0.9455681818181818,0.414840819333729,0.8763157894736842,0.8752846432719338,1.0,0.9485294117647058,0.3811142767730512,0.9078947368421053,5.785994800004119
99,0.0001788885397618797,0.6397837240045721,0.9398863636363637,0.4324089448702963,0.8828947368421053,0.8822866148698191,1.0,0.95,0.38181264808303433,0.9092105263157895,5.770453600001929
100,0.00017273415918330973,0.6758829888430509,0.9263636363636364,0.4263194241021809,0.8881578947368421,0.8876896877137559,1.0,0.9470588235294117,0.3831985483044072,0.9078947368421053,5.78829499999847
101,0.00016664504151177735,0.6512694611332633,0.9352272727272727,0.38683569054854544,0.8894736842105263,0.8896026967129529,1.0,0.9441176470588235,0.3838531500414798,0.9078947368421053,5.7978333000064595
102,0.00016062429707409598,0.6339196025241505,0.9439772727272727,0.440950493122402,0.881578947368421,0.8806630585104005,1.0,0.9382352941176471,0.38363639492737617,0.9078947368421053,5.8144154000037815
103,0.00015467500127196946,0.6400652293725447,0.9389772727272727,0.4424270247158251,0.8789473684210526,0.8782006688228854,1.0,0.9397058823529412,0.3834866984894401,0.9092105263157895,5.7936129000008805
104,0.0001488001930110739,0.619286725954576,0.9521590909090909,0.3760384412188279,0.9,0.8993298281306732,1.0,0.9485294117647058,0.38365904186901295,0.9052631578947369,5.7869242999950075
105,0.00014300287314878202,0.6396374314481562,0.94,0.37673371967516445,0.8947368421052632,0.8942720251459468,1.0,0.9573529411764706,0.3831161508434697,0.9039473684210526,5.7495716999983415
106,0.00013728600296132235,0.6675923915342851,0.9346590909090909,0.3992639642012747,0.8986842105263158,0.8982191483574165,1.0,0.9573529411764706,0.3845521628856659,0.9052631578947369,5.796941500004323
107,0.00013165250263115694,0.6229238737713206,0.9523863636363636,0.4369954567206533,0.8855263157894737,0.8849319012490933,1.0,0.9441176470588235,0.3833170837477634,0.9039473684210526,5.777892000005522
108,0.0001261052497553492,0.6289184188842774,0.9418181818181818,0.38163757386960484,0.8868421052631579,0.8860171553181659,1.0,0.9470588235294117,0.3830233119036022,0.9052631578947369,5.790325199996005
109,0.0001206470778756849,0.6352376766638322,0.9403409090909091,0.43268239874588815,0.8894736842105263,0.8889394646751445,1.0,0.9411764705882353,0.3834088786652214,0.9052631578947369,5.81100900000456
110,0.0001152807750312964,0.6441107818213376,0.9464772727272728,0.4057618796825409,0.8907894736842106,0.8906463304019823,1.0,0.9455882352941176,0.38421719105620133,0.9013157894736842,5.779166399996029
111,0.00011000908233452982,0.6159652469374917,0.9447727272727273,0.40100475141876624,0.8868421052631579,0.8861609079050666,1.0,0.9441176470588235,0.3834899099249589,0.9013157894736842,5.760474099995918
112,0.00010483469257078224,0.6299032120271163,0.9409090909090909,0.40430530686127514,0.8855263157894737,0.8850814490998584,1.0,0.9426470588235294,0.38245632742580615,0.8986842105263158,5.764336299995193
113,9.976024882302456e-05,0.6307099392197348,0.9414772727272728,0.3970188341642681,0.8934210526315789,0.8931448615563875,1.0,0.95,0.3828949787114796,0.8947368421052632,5.78051250000135
114,9.478834312171236e-05,0.6298934530128132,0.9453409090909091,0.39564072552480195,0.8973684210526316,0.8973998728906768,1.0,0.9514705882352941,0.3837489084193581,0.8960526315789473,5.776477599996724
115,8.992151512077429e-05,0.6069346785545349,0.9531818181818181,0.37871788332336825,0.8921052631578947,0.8921585749204752,1.0,0.9455882352941176,0.3839226979958384,0.8947368421052632,5.764835100002529
116,8.516225080035476e-05,0.6308689817515286,0.9469318181818182,0.4151119853320875,0.8881578947368421,0.8876638561120089,1.0,0.9514705882352941,0.38410515942071616,0.8960526315789473,5.790758199997072
117,8.051298119697266e-05,0.6081644134087996,0.9470454545454545,0.39203667985765556,0.8947368421052632,0.8941743269594067,1.0,0.9470588235294117,0.38383339267028005,0.8947368421052632,5.779369299998507
118,7.597608116174637e-05,0.6780119195851413,0.9298863636363637,0.4740613444855339,0.8789473684210526,0.878211023825811,1.0,0.9397058823529412,0.3860160416678379,0.8934210526315789,5.816287200002989
119,7.155386814731662e-05,0.6342633227868514,0.9442045454545455,0.40631553311096996,0.8973684210526316,0.8970073301909622,1.0,0.9441176470588235,0.3862669282837918,0.8934210526315789,5.774999900000694
120,6.724860102409081e-05,0.6121574059399691,0.9517045454545454,0.37714691224851105,0.9013157894736842,0.9011780511966444,1.0,0.9558823529411765,0.3851213160314058,0.8947368421052632,5.792239499998686
121,6.306247892640888e-05,0.6228215014934539,0.9569318181818182,0.41283922728739286,0.8921052631578947,0.8915850160785046,1.0,0.9470588235294117,0.3846332750822368,0.8960526315789473,5.789922599993588
122,5.899764012922409e-05,0.6039852675524625,0.9570454545454545,0.38382214935202347,0.8934210526315789,0.8933622997785976,1.0,0.9602941176470589,0.38376135637885644,0.8947368421052632,5.783689100004267
123,5.5056160955870474e-05,0.6095415427468039,0.9610227272727273,0.4245159757764716,0.8894736842105263,0.8890495953378348,1.0,0.9455882352941176,0.38318778621523003,0.8960526315789473,5.789434799997252
124,5.1240054717474066e-05,0.6345656076344577,0.9521590909090909,0.3698232942505887,0.8894736842105263,0.8890673186392005,1.0,0.9485294117647058,0.383871781198602,0.8947368421052632,5.789799800004403
125,4.755127068455278e-05,0.591543941931291,0.9552272727272727,0.39867079979494996,0.8960526315789473,0.8955681194914608,1.0,0.95,0.38161508597825705,0.8960526315789473,5.794273200001044
126,4.399169309132677e-05,0.6255794123086063,0.9504545454545454,0.34898352372018915,0.9026315789473685,0.9020100228073968,1.0,0.9529411764705882,0.38115065756597016,0.8934210526315789,5.778959399998712
127,4.0563140173249585e-05,0.6165717881376093,0.9611363636363637,0.3784141945211511,0.9,0.8995559371362252,1.0,0.9573529411764706,0.38021842586366755,0.8921052631578947,5.794033999998646
128,3.726736323825278e-05,0.594942822673104,0.9519318181818182,0.4035312056541443,0.8921052631578947,0.8915923235212582,1.0,0.9558823529411765,0.3789700953583968,0.8934210526315789,5.813586099997337
129,3.41060457721751e-05,0.6235123775222084,0.9567045454545454,0.36561889554324906,0.9013157894736842,0.901105254720765,1.0,0.9588235294117647,0.3786262113797037,0.8947368421052632,5.792475999995077
130,3.1080802578837415e-05,0.6242209722779014,0.9454545454545454,0.35642603761271424,0.906578947368421,0.9063912307856004,1.0,0.961764705882353,0.37777798364036963,0.8973684210526316,5.796269700003904
131,2.8193178955198895e-05,0.6120922699841586,0.9520454545454545,0.36627550532943326,0.8973684210526316,0.8969259011200685,1.0,0.9529411764705882,0.3766958136307566,0.8960526315789473,5.767591100004211
132,2.544464990201774e-05,0.6330108321796764,0.946590909090909,0.36213647974164864,0.9,0.8995640218697529,1.0,0.9573529411764706,0.3771788741412916,0.8947368421052632,5.777595699997619
133,2.283661937042025e-05,0.620058165030046,0.9570454545454545,0.3647097929527885,0.9013157894736842,0.9010449739003006,1.0,0.9632352941176471,0.37592395920502514,0.8934210526315789,5.778786200004106
134,2.0370419544760518e-05,0.6168130196224559,0.961590909090909,0.3598681405970925,0.8973684210526316,0.8969252915840285,1.0,0.9529411764705882,0.3757676770812587,0.8947368421052632,5.779763500002446
135,1.804731016213988e-05,0.6065517230467363,0.9609090909090909,0.39163689770196614,0.9,0.8995616358425368,1.0,0.9588235294117647,0.3750566187657808,0.8934210526315789,5.7746152999970946
136,1.5868477868931964e-05,0.6182598011060194,0.9548863636363636,0.40375856067004956,0.8986842105263158,0.8980498680902356,1.0,0.9529411764705882,0.37518310452762405,0.8934210526315789,5.762753099996189
137,1.3835035614642541e-05,0.6029850403829055,0.96375,0.4068791439658717,0.8921052631578947,0.8914603305488107,1.0,0.9529411764705882,0.37530324929638914,0.8934210526315789,5.803110200002266
138,1.1948022083414199e-05,0.5728726094419306,0.9614772727272727,0.34656685182922764,0.9078947368421053,0.9076538993468295,1.0,0.9514705882352941,0.37387317858244246,0.8960526315789473,5.793279299999995
139,1.0208401163465185e-05,0.5941160681030967,0.9680681818181818,0.36282951047545986,0.9039473684210526,0.9036524805170794,1.0,0.9485294117647058,0.37355306493608575,0.8960526315789473,5.797705999997561
140,8.617061454734755e-06,0.6267469022490761,0.9453409090909091,0.44074441978805945,0.8907894736842106,0.8902254700987449,1.0,0.9573529411764706,0.3747250196180846,0.8973684210526316,5.758789999999863
141,7.1748158149852224e-06,0.6150048344785517,0.9525,0.37777806394978575,0.8947368421052632,0.8942997784647039,1.0,0.9529411764705882,0.3758817180206901,0.8973684210526316,5.779178899996623
142,5.882400944593751e-06,0.6040318560600281,0.961590909090909,0.39235823719125046,0.8986842105263158,0.8981493025785033,1.0,0.9529411764705882,0.3758914342052058,0.8973684210526316,5.792047999995702
143,4.740477010244959e-06,0.5909891488335349,0.9630681818181818,0.37367834856635646,0.9013157894736842,0.9009942276899328,1.0,0.9588235294117647,0.3755842513159702,0.8973684210526316,5.785726000001887
144,3.7496273077172435e-06,0.6485311620885675,0.9453409090909091,0.37647448056622557,0.8921052631578947,0.8917337669337924,1.0,0.9529411764705882,0.37793338236055873,0.8973684210526316,5.757595500006573
145,2.9103579639347222e-06,0.6168170550736514,0.9526136363636364,0.388514548853824,0.8973684210526316,0.8969365893652007,1.0,0.9558823529411765,0.3785530482467852,0.8973684210526316,5.809267299999192
146,2.223097678437247e-06,0.6144090769507669,0.9642045454545455,0.40151294814912897,0.8894736842105263,0.8890160222814497,1.0,0.9588235294117647,0.3786141637124513,0.8986842105263158,5.785675799997989
147,1.6881975044002091e-06,0.5798860795931383,0.9601136363636363,0.34648999634541966,0.9026315789473685,0.9023861875616586,1.0,0.9514705882352941,0.37795402219420987,0.8986842105263158,5.787458999999217
148,1.3059306693162125e-06,0.6221943944150752,0.9505681818181818,0.3993522233084629,0.8947368421052632,0.8943678295932065,1.0,0.9529411764705882,0.3775970462121462,0.9,5.799286800000118
149,1.0764924354303636e-06,0.6242794320800088,0.9457954545454546,0.3891832853618421,0.8934210526315789,0.8929864337802114,1.0,0.9544117647058824,0.37853506081982663,0.9,5.814713799998572
150,1e-06,0.6128847360610962,0.9593181818181818,0.3788312403779281,0.9026315789473685,0.9020821166316477,1.0,0.9558823529411765,0.3787181656611593,0.9,5.768101699999534
