epoch,lr,train_loss,train_accuracy,val_loss,val_accuracy,val_macro_f1,val_trial_accuracy,val_k3,ema_loss,ema_accuracy,seconds
1,5.9999999999999995e-05,1.260253028869629,0.5509090909090909,0.9193668503510325,0.6289473684210526,0.6197956507731968,0.8,0.6941176470588235,1.6089933683997706,0.2,20.711337999993702
2,0.00011999999999999999,1.1021740991419011,0.6659090909090909,0.6336437877855803,0.7763157894736842,0.774671167335351,0.95,0.8352941176470589,1.6129844276528609,0.2,20.52292740000121
3,0.00018,1.0143437131968411,0.7335227272727273,0.5922276399637524,0.7947368421052632,0.7972677597413141,0.95,0.8485294117647059,1.6310868075019436,0.2,20.470160700002452
4,0.00023999999999999998,0.9599359468980269,0.7601136363636364,0.4755482843047694,0.8355263157894737,0.8362771886240544,1.0,0.9102941176470588,1.6742598659113834,0.2026315789473684,20.5133136000004
5,0.0003,0.8844724182649092,0.7946590909090909,0.6062627510020607,0.7842105263157895,0.7784303709765539,0.95,0.85,1.7537848183983251,0.24342105263157895,20.528383099997882
6,0.00035999999999999997,0.9057446503639222,0.8040909090909091,0.5558948636054992,0.8184210526315789,0.8122006878433025,0.9,0.8661764705882353,1.8707969251431917,0.25394736842105264,20.53505440000299
7,0.00042,0.9015865564346314,0.8131818181818182,0.5393950211374383,0.8065789473684211,0.8040504713118743,0.975,0.8544117647058823,2.006918176224357,0.26710526315789473,20.56973700000526
8,0.0004799999999999999,0.79705162525177,0.8431818181818181,0.6200847227322428,0.7828947368421053,0.7807053458038377,0.9,0.8426470588235294,2.149072906845494,0.26710526315789473,20.507743099995423
9,0.00054,0.8516761472008445,0.8393181818181819,0.5951477442917071,0.7934210526315789,0.7910920503887395,0.925,0.8661764705882353,2.31489386495791,0.2710526315789474,20.545476700004656
10,0.0005999999999999998,0.8473331082950939,0.8411363636363637,0.4858118176460266,0.85,0.8485538885808209,0.975,0.9279411764705883,2.5263514487366927,0.2631578947368421,20.56585669999913
11,0.0006,0.7823898532173851,0.865909090909091,0.43559228056355526,0.8447368421052631,0.8469481621299171,1.0,0.9176470588235294,2.7218538001963966,0.2802631578947368,20.51118999999744
12,0.0005999235075645696,0.8241539361260154,0.84375,0.4914597972443229,0.8197368421052632,0.8165134210052243,1.0,0.875,2.9003920699420727,0.26973684210526316,20.5175562000004
13,0.0005996940693306837,0.7824904298782349,0.8569318181818182,0.4755438299555528,0.8328947368421052,0.8310295893337178,0.975,0.8867647058823529,3.0208281673883137,0.27631578947368424,20.530228200004785
14,0.0005993118024955998,0.7770764294537631,0.8632954545454545,0.544814562170129,0.8092105263157895,0.8166133564018644,1.0,0.8852941176470588,3.1499898803861517,0.26973684210526316,20.51621129999694
15,0.0005987769023215627,0.7411172559044578,0.89125,0.5748687050844493,0.7973684210526316,0.7979587821636536,0.975,0.8808823529411764,3.1672522298599546,0.275,20.501518999997643
16,0.0005980896420360653,0.7744370792128823,0.8738636363636364,0.4986958146095276,0.8328947368421052,0.8318905437784521,0.95,0.8691176470588236,3.100570778783999,0.2802631578947368,20.508000800000445
17,0.0005972503726922827,0.7529074040326205,0.8860227272727272,0.48665237489499547,0.8328947368421052,0.83116108095615,1.0,0.9044117647058824,3.0060612527163406,0.2644736842105263,20.527317699998093
18,0.0005962595229897549,0.7154327045787464,0.8963636363636364,0.48441809039366873,0.8486842105263158,0.8447661736068186,0.95,0.8911764705882353,2.805019941063304,0.2894736842105263,20.546638200001325
19,0.0005951175990554061,0.7159220933914184,0.9001136363636364,0.44063155462867337,0.8368421052631579,0.8362656082395479,1.0,0.9205882352941176,2.594945244804809,0.3223684210526316,20.556010100001004
20,0.0005938251841850148,0.7456511144204573,0.8938636363636364,0.4441391800579272,0.8697368421052631,0.8703086588215196,1.0,0.9323529411764706,2.265024887966482,0.3894736842105263,20.54958020000049
21,0.0005923829385452652,0.7002472866665234,0.9123863636363636,0.43958935486642936,0.8552631578947368,0.8543042263380893,1.0,0.9264705882352942,1.9416541650107033,0.4605263157894737,20.56309809999948
22,0.0005907915988365347,0.752118186083707,0.8919318181818182,0.524997911955181,0.8526315789473684,0.8504551647254791,0.975,0.913235294117647,1.5819333526648973,0.5421052631578948,20.73492139999871
23,0.0005890519779165858,0.7216740094531666,0.9039772727272727,0.48781215172064935,0.8460526315789474,0.8469931530055765,1.0,0.9088235294117647,1.2610407378328474,0.6,20.540937500001746
24,0.0005871649643853574,0.7141717410087586,0.90375,0.4158707458721964,0.8802631578947369,0.879504100870261,1.0,0.9294117647058824,1.017318645119667,0.6723684210526316,20.485550700002932
25,0.000585131522131068,0.7037728344310413,0.9128409090909091,0.4898797298732557,0.8421052631578947,0.841359645428463,0.975,0.8867647058823529,0.836697026773503,0.7276315789473684,20.468666000000667
26,0.0005829526898378601,0.6915316369316795,0.9160227272727273,0.49100108930939124,0.843421052631579,0.8440758388138285,0.975,0.9176470588235294,0.7065237950337561,0.7526315789473684,20.49905320000107
27,0.0005806295804552395,0.6968595584956082,0.9142045454545454,0.5237070980824923,0.8263157894736842,0.821302338102935,0.975,0.8691176470588236,0.6103987445956782,0.7881578947368421,20.542007600000943
28,0.0005781633806295796,0.6941625014218417,0.9167045454545455,0.4543928646727612,0.85,0.8511234542333834,0.975,0.9308823529411765,0.5429205641934746,0.8197368421052632,20.537681300003896
29,0.0005755553500979822,0.6981327042796395,0.9135227272727273,0.5219487842760588,0.8236842105263158,0.8251389842748807,1.0,0.9235294117647059,0.5034311393373891,0.8315789473684211,20.588246700004674
30,0.0005728068210448012,0.6832387967543169,0.9255681818181818,0.4412000951014067,0.8526315789473684,0.8530801238874399,0.975,0.9147058823529411,0.46173973146237823,0.8447368421052631,20.52298080000037
31,0.0005699191974211625,0.6712278894944624,0.92625,0.47310232927924706,0.8710526315789474,0.8712904108503758,1.0,0.9235294117647059,0.43221222758293154,0.8618421052631579,20.525872900005197
32,0.0005668939542278249,0.6801188024607572,0.9268181818181818,0.45140561508504967,0.85,0.8528325997785876,1.0,0.9073529411764706,0.4134477119696768,0.868421052631579,20.48211089999677
33,0.0005637326367617472,0.6547617933966897,0.93375,0.4109193105446665,0.868421052631579,0.8677578019914346,1.0,0.9294117647058824,0.40206979356314004,0.8697368421052631,20.51169359999767
34,0.0005604368598267504,0.6879079682176763,0.9214772727272728,0.42601697789995296,0.8631578947368421,0.8640360221619303,1.0,0.9426470588235294,0.39287300078492415,0.8789473684210526,20.48562619999575
35,0.0005570083069086733,0.6709398280490528,0.9315909090909091,0.47954677688448055,0.8302631578947368,0.8300839830000623,1.0,0.8985294117647059,0.38388856492544476,0.8789473684210526,20.467510400005267
36,0.0005534487293154471,0.6407193669405851,0.9429545454545455,0.4131065164741717,0.8671052631578947,0.8665730625663832,1.0,0.9264705882352942,0.3751923419927296,0.8802631578947369,20.5069610999999
37,0.0005497599452825259,0.6902584351192821,0.9230681818181818,0.41060891214169953,0.8631578947368421,0.861110232862296,1.0,0.9308823529411765,0.37135359111585114,0.881578947368421,20.51995899999747
38,0.0005459438390441295,0.6467894723198631,0.9370454545454545,0.4150851296751123,0.8671052631578947,0.8664504128288743,1.0,0.9411764705882353,0.3682872969853251,0.8855263157894737,20.50003619999916
39,0.0005420023598707758,0.6453060167486018,0.9421590909090909,0.444948779281817,0.8565789473684211,0.8557603887919635,0.975,0.9279411764705883,0.3666594263754393,0.8907894736842106,20.49692149999464
40,0.0005379375210735911,0.6790549461408095,0.9244318181818182,0.4520048448913976,0.8578947368421053,0.8571252478001051,1.0,0.9205882352941176,0.3682498731111225,0.8934210526315789,20.47331100000156
41,0.0005337513989759092,0.7030119282549078,0.9323863636363636,0.5480234644914929,0.7973684210526316,0.7916373836494848,1.0,0.8823529411764706,0.3708310980545847,0.8947368421052632,20.545605400002387
42,0.0005294461318526833,0.6536786812002009,0.9381818181818182,0.5175909939565156,0.8184210526315789,0.8214339544912136,1.0,0.8970588235294118,0.36894322508259825,0.8973684210526316,20.52926920000027
43,0.0005250239188382536,0.706278448971835,0.9095454545454545,0.5193638443946839,0.8210526315789474,0.8206845688327359,0.975,0.9088235294117647,0.3681392064220027,0.8986842105263158,20.534047199995257
44,0.0005204870188030272,0.6636588051102378,0.9397727272727273,0.4964101872946087,0.8368421052631579,0.8345246268461304,0.975,0.9029411764705882,0.37029153861497577,0.8907894736842106,20.51870449999842
45,0.0005158377491996452,0.6577019971067255,0.9431818181818182,0.4124461945734526,0.8657894736842106,0.865675811062478,1.0,0.9397058823529412,0.36925952371798065,0.8921052631578947,20.551209899997048
46,0.0005110784848792257,0.6200993327660994,0.9456818181818182,0.44325874730160364,0.8447368421052631,0.8439232377210442,1.0,0.9264705882352942,0.36845446228981016,0.8921052631578947,20.555444100005843
47,0.0005062116568782877,0.7177324531295083,0.9118181818181819,0.4558448396230999,0.8578947368421053,0.8559373668482518,1.0,0.9161764705882353,0.37031663499380413,0.8828947368421053,20.536048399997526
48,0.0005012397511769754,0.6617878484725952,0.9407954545454545,0.42424717921959726,0.8789473684210526,0.8793713398764208,1.0,0.9382352941176471,0.36958031842583106,0.881578947368421,20.542302900001232
49,0.0004961653074292177,0.6917312371730805,0.9311363636363637,0.42446554052202323,0.8723684210526316,0.87276506795741,1.0,0.9279411764705883,0.3684124987376364,0.8855263157894737,20.526703199997428
50,0.0004909909176654702,0.6365320817990736,0.9386363636363636,0.3927387027364028,0.8736842105263158,0.8725299701177558,1.0,0.9367647058823529,0.36608802456604805,0.8868421052631579,20.567378399995505
51,0.00048571922496870357,0.6467825963280418,0.9460227272727273,0.459051031187961,0.8605263157894737,0.8603302067349885,1.0,0.9323529411764706,0.36664882365025975,0.8894736842105263,20.55171710000286
52,0.00048035292212431514,0.6422595802220431,0.9509090909090909,0.48179572067762677,0.8381578947368421,0.8357959794569793,1.0,0.9088235294117647,0.36626036731820355,0.8894736842105263,20.532698900002288
53,0.0004748947502446508,0.6709386485273188,0.9389772727272727,0.4087852823106866,0.868421052631579,0.8671292357606344,1.0,0.9382352941176471,0.3667818574528945,0.8907894736842106,20.510352599994803
54,0.00046934749736884306,0.6430622066151012,0.9379545454545455,0.45022956540710046,0.8578947368421053,0.8591689129242053,1.0,0.9176470588235294,0.3657746173833546,0.8842105263157894,20.510958999999275
55,0.0004637139970386777,0.6499824879386208,0.9442045454545455,0.42809460382712516,0.8657894736842106,0.8648490790253627,1.0,0.9397058823529412,0.3646252287061591,0.8842105263157894,20.54573160000291
56,0.000457997126851218,0.6521134120767766,0.9364772727272728,0.45250898725108096,0.8565789473684211,0.8555178805367436,1.0,0.9102941176470588,0.36720320049085114,0.8868421052631579,20.506407499997295
57,0.00045219980698892607,0.6517497069185431,0.9385227272727272,0.4608581524146231,0.8513157894736842,0.8485322660450312,1.0,0.9235294117647059,0.3673984734635604,0.8881578947368421,20.45258360000298
58,0.0004463249987280305,0.625328440991315,0.9454545454545454,0.418878173828125,0.8631578947368421,0.8626359878036925,1.0,0.9558823529411765,0.36903333067893984,0.8842105263157894,20.548565899996902
59,0.000440375702925904,0.6209149035540494,0.9579545454545455,0.39596930993230717,0.8776315789473684,0.8768428320421826,1.0,0.9382352941176471,0.3692339040731129,0.8855263157894737,20.567896700005804
60,0.0004343549584882226,0.6196228902990167,0.9489772727272727,0.506335891547956,0.8302631578947368,0.8339196700363687,0.975,0.8970588235294118,0.3685081472522334,0.8894736842105263,20.54646430000139
61,0.00042826584081669025,0.6451574924859134,0.949659090909091,0.4258185129416616,0.8697368421052631,0.8695764872663929,0.975,0.9338235294117647,0.3700840190837258,0.8881578947368421,20.53429060000053
62,0.00042211146023812037,0.6447401798855175,0.9477272727272728,0.451557802840283,0.8592105263157894,0.8598334750814566,0.975,0.913235294117647,0.3719050363490456,0.8894736842105263,20.536519900000712
63,0.0004158949604156783,0.6484851670265198,0.9386363636363636,0.4885223005947314,0.8421052631578947,0.8389865159194738,0.975,0.9029411764705882,0.3745397862635161,0.8868421052631579,20.5283380999972
64,0.0004096195167430953,0.6421107263998552,0.9467045454545454,0.4712966915808226,0.8368421052631579,0.8364330699825018,0.95,0.9044117647058824,0.376753957961735,0.8868421052631579,20.56590540000616
65,0.0004032883347226749,0.6228899255665866,0.9563636363636364,0.46824995404795594,0.843421052631579,0.841732120811586,0.95,0.9073529411764706,0.3754195370172199,0.8842105263157894,20.54211850000138
66,0.0003969046483279189,0.6159666394103657,0.9493181818181818,0.45763712399884277,0.8539473684210527,0.8545356591953253,0.975,0.9117647058823529,0.3745230025366733,0.881578947368421,20.51803920000384
67,0.0003904717183516109,0.6565415625138716,0.9361363636363637,0.44045570712340504,0.8657894736842106,0.8656355395691137,1.0,0.9323529411764706,0.37417245224902507,0.8842105263157894,20.560896499999217
68,0.0003839928307402005,0.6192752692916177,0.9545454545454546,0.4556807671722613,0.8736842105263158,0.8727508344029559,1.0,0.9367647058823529,0.3748719861632899,0.881578947368421,20.540042599997832
69,0.00037747129491533916,0.6068375008756464,0.9625,0.43625650939188504,0.8657894736842106,0.8665658512716243,1.0,0.9117647058823529,0.37399018971543563,0.8881578947368421,20.491414300006
70,0.0003709104420834241,0.6365326877073808,0.9471590909090909,0.44948645955637884,0.8526315789473684,0.8518192871522917,0.975,0.9191176470588235,0.37488772680884913,0.8868421052631579,20.51498630000424
71,0.00036431362353401533,0.6110665442726829,0.954659090909091,0.42728476336127835,0.8631578947368421,0.8628136289793135,0.975,0.9264705882352942,0.37585252460680507,0.8894736842105263,20.520380599999044
72,0.0003576842089279937,0.6182211535627191,0.9569318181818182,0.4431157162314967,0.8578947368421053,0.8578101143709066,0.975,0.9279411764705883,0.3770080560132077,0.8894736842105263,20.52855609999824
73,0.0003510255845763356,0.6059231090545655,0.9525,0.4380354241320961,0.8618421052631579,0.8605587408783902,1.0,0.9220588235294118,0.38119233878035297,0.8855263157894737,20.544180099997902
74,0.0003443411517103819,0.6289728966626253,0.9507954545454546,0.46979743555972453,0.8447368421052631,0.8442091949259932,1.0,0.9176470588235294,0.38228723626387745,0.8828947368421053,20.574938300000213
75,0.0003376343247444856,0.6112591196190227,0.9544318181818182,0.4069194385879918,0.8697368421052631,0.8693688935544666,1.0,0.9441176470588235,0.38105661555340414,0.8855263157894737,20.56833740000002
76,0.0003309085295319264,0.6193576472455805,0.9656818181818182,0.4434903991849799,0.8657894736842106,0.8664116351029001,0.975,0.913235294117647,0.3804644929735284,0.8881578947368421,20.54000570000062
77,0.0003241672016149815,0.5979913326826962,0.96125,0.4763720455922579,0.8552631578947368,0.8550055745438456,0.975,0.913235294117647,0.3798652237967441,0.8881578947368421,20.598972800005868
78,0.00031741378447004763,0.604761476950212,0.9590909090909091,0.4242436459189967,0.868421052631579,0.867633367567319,1.0,0.9220588235294118,0.3803829798572942,0.8907894736842106,20.590899499999068
79,0.00031065172774871004,0.6537991935556585,0.9461363636363637,0.45739717859970896,0.8473684210526315,0.8459185542167615,1.0,0.9323529411764706,0.38272648955646316,0.8828947368421053,20.512578199995914
80,0.00030388448551565744,0.6005070450089195,0.9525,0.446759074298959,0.8565789473684211,0.855612042405248,1.0,0.9294117647058824,0.38497025245114375,0.881578947368421,20.48294309999619
81,0.0002971155144843426,0.6039274792237715,0.9489772727272727,0.39860610899172333,0.8763157894736842,0.8757439562672937,1.0,0.9279411764705883,0.38633792274876644,0.8828947368421053,20.50099179999961
82,0.0002903482722512899,0.5796363885836168,0.9670454545454545,0.4475503027439117,0.8605263157894737,0.8601256670080482,0.975,0.9176470588235294,0.38895179284246345,0.881578947368421,20.548141500003112
83,0.0002835862155299524,0.628667092106559,0.9482954545454545,0.466928221677479,0.8513157894736842,0.8505435841800258,1.0,0.9044117647058824,0.39173033833503723,0.875,20.56597110000439
84,0.00027683279838501855,0.6140097547661174,0.9473863636363636,0.4284205392787331,0.8671052631578947,0.8680855112231841,0.975,0.925,0.39351461341506555,0.875,20.47145389999787
85,0.00027009147046807365,0.5940874934196472,0.9689772727272727,0.4415513697423433,0.8631578947368421,0.8621556651322606,1.0,0.9235294117647059,0.3937673863611723,0.875,20.556338499998674
86,0.0002633656752555145,0.6028794246370142,0.9580681818181818,0.47794197484066614,0.8460526315789474,0.8448370854052338,0.975,0.9161764705882353,0.3947965512150212,0.8802631578947369,20.524484499997925
87,0.00025665884828961807,0.6215223453261636,0.9490909090909091,0.4405426837896046,0.8631578947368421,0.8628395468324538,1.0,0.9382352941176471,0.39362114385554664,0.881578947368421,20.53051570000389
88,0.00024997441542366436,0.5825024489922958,0.9672727272727273,0.45189156845996253,0.8565789473684211,0.8561202535863274,0.975,0.9176470588235294,0.39470106457409104,0.8802631578947369,20.548312999999325
89,0.00024331579107200632,0.5975447286259045,0.9618181818181818,0.4370587003858466,0.8671052631578947,0.866576159993844,1.0,0.9308823529411765,0.3944397364792071,0.8802631578947369,20.54907899999671
90,0.0002366863764659847,0.5933119787953117,0.9632954545454545,0.44492211686937433,0.8486842105263158,0.8481062107714126,1.0,0.9176470588235294,0.395950197232397,0.8802631578947369,20.53020860000106
91,0.0002300895579165759,0.6163789468461817,0.9629545454545455,0.4406652359586013,0.8618421052631579,0.8602656911003436,1.0,0.9176470588235294,0.39867248503785385,0.8828947368421053,20.53144859999884
92,0.0002235287050846607,0.5969963201609525,0.9598863636363636,0.437076167997561,0.85,0.8488196722340244,0.975,0.9205882352941176,0.39917498230934145,0.8828947368421053,20.591337300000305
93,0.00021700716925979942,0.5712782268090681,0.9739772727272727,0.4686578455724214,0.85,0.8499099534558587,1.0,0.9044117647058824,0.3997685485764554,0.8842105263157894,20.54981730000145
94,0.00021052828164838913,0.5892402021451429,0.9742045454545455,0.44517822218568703,0.8552631578947368,0.855240976922899,0.975,0.9147058823529411,0.3984995791786595,0.8842105263157894,20.5544921000037
95,0.00020409535167208103,0.6195682237365029,0.9589772727272727,0.42832521106067456,0.8776315789473684,0.8770700161553858,1.0,0.9308823529411765,0.39882001312155474,0.8842105263157894,20.514224899998226
96,0.00019771166527732506,0.5840612879666415,0.9605681818181818,0.4307781812391783,0.8671052631578947,0.866952561898555,1.0,0.9367647058823529,0.39793588738692437,0.8868421052631579,20.49027819999901
97,0.00019138048325690465,0.5927747856486928,0.9538636363636364,0.45244337288956893,0.8539473684210527,0.8543517694674833,0.975,0.9205882352941176,0.3991435007045144,0.881578947368421,20.566577699995833
98,0.00018510503958432174,0.604396643855355,0.9634090909090909,0.43102312589946545,0.8671052631578947,0.8656476523843863,1.0,0.9338235294117647,0.3993853123564469,0.8789473684210526,20.503360599999723
99,0.0001788885397618797,0.6191179891066118,0.9580681818181818,0.419200936430379,0.875,0.8744452451084888,1.0,0.9382352941176471,0.39714010044148096,0.8763157894736842,20.5373322000014
100,0.00017273415918330973,0.5891005446694114,0.9634090909090909,0.4391897091740056,0.8657894736842106,0.8647430121997177,1.0,0.9279411764705883,0.3968153307312413,0.8789473684210526,20.495883399999002
101,0.00016664504151177735,0.5869230504469438,0.9590909090909091,0.4129959900128214,0.8710526315789474,0.8709055339885747,1.0,0.9279411764705883,0.3965929523894661,0.875,20.582262299998547
102,0.00016062429707409598,0.5993725321509621,0.9619318181818182,0.423037598635021,0.8710526315789474,0.8701482688018057,1.0,0.9308823529411765,0.39605110632745844,0.8763157894736842,20.512515700000222
103,0.00015467500127196946,0.5985836553573608,0.9715909090909091,0.4345193160207648,0.8671052631578947,0.8673791688543957,1.0,0.9323529411764706,0.3969685614109039,0.8763157894736842,20.55372169999464
104,0.0001488001930110739,0.6018206573616375,0.9584090909090909,0.44946449775444836,0.8657894736842106,0.8648159368488562,1.0,0.9308823529411765,0.3997268683031986,0.8763157894736842,20.52787050000188
105,0.00014300287314878202,0.5716451228748668,0.9646590909090909,0.4500367023442921,0.8644736842105263,0.863698655834353,0.975,0.9191176470588235,0.40187980281679253,0.8802631578947369,20.57840700000088
106,0.00013728600296132235,0.6275652730464936,0.954659090909091,0.4471541956851357,0.8539473684210527,0.853546660243313,1.0,0.9264705882352942,0.4040829310291692,0.8802631578947369,20.559442199999467
107,0.00013165250263115694,0.6258962308276783,0.9606818181818182,0.4821051349765376,0.8513157894736842,0.85220982050932,0.975,0.9205882352941176,0.4081161505297611,0.8789473684210526,20.565989299997455
108,0.0001261052497553492,0.5794449938427318,0.9722727272727273,0.43761026576945655,0.8631578947368421,0.8618941514701894,0.975,0.9205882352941176,0.4115937882348111,0.8763157894736842,20.61487699999998
109,0.0001206470778756849,0.5540392501787705,0.9679545454545454,0.44796997873406663,0.8605263157894737,0.8598084920852793,0.975,0.9191176470588235,0.4130538943566774,0.875,20.51056210000388
110,0.0001152807750312964,0.5667844670469111,0.9671590909090909,0.43584289582152114,0.8592105263157894,0.8592024977535514,0.975,0.9279411764705883,0.4148693677626158,0.875,20.56122129999858
111,0.00011000908233452982,0.5999297327345068,0.9634090909090909,0.47550691334824813,0.8592105263157894,0.8598438004717428,0.975,0.9205882352941176,0.41600639035827236,0.875,20.528319199998805
112,0.00010483469257078224,0.5848532681031661,0.9627272727272728,0.42904703334758154,0.8631578947368421,0.8641925095455468,1.0,0.9279411764705883,0.41765425926760624,0.8736842105263158,20.54840630000399
113,9.976024882302456e-05,0.6157730728929693,0.9534090909090909,0.4648065275267551,0.8631578947368421,0.8631389636882346,1.0,0.913235294117647,0.41834411589722886,0.8723684210526316,20.507598500000313
114,9.478834312171236e-05,0.6097909348661249,0.96875,0.4436491304322293,0.8710526315789474,0.8713930807888772,1.0,0.9323529411764706,0.42044091475637335,0.8697368421052631,20.48188300000038
115,8.992151512077429e-05,0.5668920084563168,0.9681818181818181,0.4572268040556657,0.8539473684210527,0.8544017203812706,1.0,0.9264705882352942,0.42146092527791074,0.868421052631579,20.537000600001193
116,8.516225080035476e-05,0.5765132596276024,0.9745454545454545,0.43680492263091236,0.8657894736842106,0.8659009219159248,0.975,0.9264705882352942,0.42258662173622535,0.868421052631579,20.529311999998754
117,8.051298119697266e-05,0.5805266961184415,0.9639772727272727,0.4355406905475416,0.8697368421052631,0.8694278790574135,1.0,0.9308823529411765,0.42175437431586416,0.8657894736842106,20.56090260000201
118,7.597608116174637e-05,0.575001795725389,0.9628409090909091,0.4315989042583265,0.8631578947368421,0.8635110831652325,1.0,0.9279411764705883,0.4221251641449175,0.8671052631578947,20.56119700000272
119,7.155386814731662e-05,0.5732117015665228,0.97,0.44774868645166094,0.8631578947368421,0.8635554993302785,1.0,0.925,0.421015287073035,0.8697368421052631,20.508210599997255
120,6.724860102409081e-05,0.5895234430919994,0.95875,0.45164329127261515,0.8605263157894737,0.8613585811362429,1.0,0.925,0.4213450391041605,0.8736842105263158,20.512985400004254
121,6.306247892640888e-05,0.5882417729767886,0.9651136363636363,0.4651827351043099,0.875,0.8750692537384127,1.0,0.9352941176470588,0.42519049487615884,0.8723684210526316,20.513993000000482
122,5.899764012922409e-05,0.5920902984792535,0.9711363636363637,0.4440713992244319,0.8697368421052631,0.8700554529287169,0.975,0.9279411764705883,0.4253435636821546,0.8736842105263158,20.508172599998943
123,5.5056160955870474e-05,0.6110848046432842,0.965,0.4230962656046215,0.8710526315789474,0.8705124207337016,1.0,0.9441176470588235,0.4263315301192434,0.8736842105263158,20.517051199996786
124,5.1240054717474066e-05,0.5725997999581424,0.9630681818181818,0.4340271805462084,0.868421052631579,0.8678967704482249,1.0,0.9411764705882353,0.4254063650181419,0.875,20.52806729999429
125,4.755127068455278e-05,0.5890404576605016,0.9729545454545454,0.44454562507177653,0.8657894736842106,0.8656883589447544,1.0,0.9426470588235294,0.42551847696304324,0.8763157894736842,20.552673699996376
126,4.399169309132677e-05,0.593499146158045,0.9643181818181819,0.42681186136446503,0.8697368421052631,0.8695955163204809,1.0,0.9308823529411765,0.4259194621914311,0.875,20.532289000002493
127,4.0563140173249585e-05,0.5702579914439808,0.9701136363636363,0.422004057545411,0.8736842105263158,0.8735327981459964,1.0,0.9367647058823529,0.42568712767801786,0.8789473684210526,20.505226900000707
128,3.726736323825278e-05,0.5951390538432382,0.9754545454545455,0.4399893500302967,0.8671052631578947,0.8666823710844886,1.0,0.9279411764705883,0.42524590711844595,0.8789473684210526,20.52567669999553
129,3.41060457721751e-05,0.5819685606522994,0.9704545454545455,0.4385955001178541,0.868421052631579,0.8681728063235816,1.0,0.9367647058823529,0.425412549784309,0.8736842105263158,20.504089100002602
130,3.1080802578837415e-05,0.5899544195695356,0.9742045454545455,0.429300730479391,0.8710526315789474,0.8715731035386731,1.0,0.9352941176470588,0.42708402840714704,0.8710526315789474,20.540570999997726
131,2.8193178955198895e-05,0.5467172892527147,0.9795454545454545,0.44110272118919774,0.8644736842105263,0.864718628789665,1.0,0.9220588235294118,0.4266070714122371,0.8723684210526316,20.54907380000077
132,2.544464990201774e-05,0.6249428378451954,0.9614772727272727,0.46559416087050187,0.8526315789473684,0.8524363231277103,1.0,0.925,0.42777067548350284,0.8710526315789474,20.500020700004825
133,2.283661937042025e-05,0.5936205725236372,0.9679545454545454,0.45241233361394784,0.8618421052631579,0.8620709448598195,1.0,0.9161764705882353,0.4289419867490467,0.8671052631578947,20.52933660000417
134,2.0370419544760518e-05,0.5680682528018951,0.9715909090909091,0.4459861360098186,0.8618421052631579,0.8620732548578142,1.0,0.925,0.4292945450858066,0.8657894736842106,20.513660699994944
135,1.804731016213988e-05,0.5744143635576422,0.9773863636363637,0.4421879015470806,0.8631578947368421,0.8633163156860804,1.0,0.925,0.4300981220446135,0.8644736842105263,20.50165840000409
136,1.5868477868931964e-05,0.6033166638287631,0.9720454545454545,0.42921495908185053,0.8736842105263158,0.8738503778629502,1.0,0.9352941176470588,0.430941210922442,0.8671052631578947,20.5369228999989
137,1.3835035614642541e-05,0.5861729389970953,0.9767045454545454,0.4459948884813409,0.8657894736842106,0.8655759757305412,1.0,0.9308823529411765,0.4306769929434124,0.8697368421052631,20.574048599999514
138,1.1948022083414199e-05,0.6048316379026933,0.9632954545454545,0.42806621382111,0.8763157894736842,0.8759113965033418,1.0,0.9455882352941176,0.4311247173108553,0.8671052631578947,20.59107429999858
139,1.0208401163465185e-05,0.5691882640665228,0.9669318181818182,0.4493527867292103,0.8565789473684211,0.8570407125066091,1.0,0.9294117647058824,0.43106215533457304,0.8710526315789474,20.566855999997642
140,8.617061454734755e-06,0.5626321299509569,0.9726136363636364,0.44682825960611045,0.8631578947368421,0.8634075223442762,1.0,0.9294117647058824,0.431060549773668,0.8723684210526316,20.493202700003167
141,7.1748158149852224e-06,0.571027543111281,0.9736363636363636,0.43939297230620133,0.8592105263157894,0.8590003511599132,1.0,0.9323529411764706,0.43135657059518917,0.8736842105263158,20.514280600000347
142,5.882400944593751e-06,0.5940510646863417,0.9671590909090909,0.4387757956981659,0.8671052631578947,0.8670917136496721,1.0,0.9294117647058824,0.4319029964898762,0.8710526315789474,20.528223200002685
143,4.740477010244959e-06,0.5879499855908481,0.9747727272727272,0.4435135681378214,0.8565789473684211,0.85665843879198,1.0,0.9279411764705883,0.4330884440949089,0.8710526315789474,20.533060500005377
144,3.7496273077172435e-06,0.5771928596496582,0.9696590909090909,0.4464062342518254,0.8526315789473684,0.8532459443914299,1.0,0.925,0.43380793458537054,0.868421052631579,20.53511730000173
145,2.9103579639347222e-06,0.5639219486713409,0.9734090909090909,0.4319768805252878,0.8736842105263158,0.873525682485331,1.0,0.9294117647058824,0.43432070989357796,0.868421052631579,20.53558509999857
146,2.223097678437247e-06,0.5732195008884776,0.96625,0.4317386031150818,0.8631578947368421,0.8629847726284045,1.0,0.9279411764705883,0.43458284076891446,0.868421052631579,20.527188699998078
147,1.6881975044002091e-06,0.5843164024569771,0.9736363636363636,0.43806642293930054,0.868421052631579,0.8687065388949694,1.0,0.9308823529411765,0.4350397204097949,0.868421052631579,20.510976099998516
148,1.3059306693162125e-06,0.5966032380407507,0.96625,0.43641260987833924,0.8644736842105263,0.8645366602359278,1.0,0.9279411764705883,0.4352388887028945,0.8671052631578947,20.53845690000162
149,1.0764924354303636e-06,0.5877987002242695,0.9722727272727273,0.43937241309567504,0.8605263157894737,0.8607940198539984,1.0,0.9264705882352942,0.43563826711554277,0.8644736842105263,20.535732499993173
150,1e-06,0.5407952560078014,0.98,0.434571437459243,0.8644736842105263,0.8648651524446425,1.0,0.9338235294117647,0.4356721570617274,0.8671052631578947,20.489283200004138
