epoch,lr,train_loss,train_accuracy,val_loss,val_accuracy,val_macro_f1,val_trial_accuracy,val_k3,ema_loss,ema_accuracy,seconds
1,5.9999999999999995e-05,3.051099804097956,0.21159090909090908,1.803496249098527,0.275,0.21843282689158486,0.375,0.3338235294117647,1.614061215049342,0.2,6.016937899999903
2,0.00011999999999999999,2.5199463957006283,0.23886363636363636,1.950572571001555,0.2644736842105263,0.21868745327373956,0.375,0.3,1.6166465357730264,0.2,5.806694099999731
3,0.00018,2.4082234035838734,0.2803409090909091,1.5742460589659841,0.38552631578947366,0.31822497582624043,0.5,0.4338235294117647,1.6192588404605264,0.2,5.789832900001784
4,0.00023999999999999998,2.1390771198272707,0.3377272727272727,1.2801282380756578,0.4473684210526316,0.3398465663814914,0.475,0.475,1.6223234477796054,0.2,5.79733309999574
5,0.0003,1.8924511168219826,0.39443181818181816,1.151274666033293,0.5342105263157895,0.4926330731621686,0.65,0.586764705882353,1.6240260111658196,0.2,5.8005125999989104
6,0.00035999999999999997,1.9014991313760932,0.4330681818181818,1.6631215522163794,0.5026315789473684,0.46342760735476884,0.525,0.525,1.628125,0.2,5.806288300002052
7,0.00042,1.6785574700615622,0.4630681818181818,1.0921913372842889,0.6210526315789474,0.5832244424714415,0.775,0.663235294117647,1.6318333675986842,0.2,5.8612883999958285
8,0.0004799999999999999,1.568018002943559,0.5131818181818182,0.9854753958551508,0.6302631578947369,0.6038411324416051,0.8,0.6955882352941176,1.634166837993421,0.2,5.785287199993036
9,0.00054,1.5406292429837314,0.5473863636363636,1.0787749980625354,0.6723684210526316,0.6634332679464586,0.925,0.7720588235294118,1.6353978207236841,0.2,5.780200100001821
10,0.0005999999999999998,1.4190683533928612,0.5731818181818182,1.3167207893572355,0.6592105263157895,0.6451346190624854,0.925,0.7544117647058823,1.6351588199013158,0.2,5.799530500000401
11,0.0006,1.3122411541505294,0.6256818181818182,0.8842543627086439,0.7486842105263158,0.7354509789771637,0.95,0.8264705882352941,1.635546875,0.2,5.794152799993753
12,0.0005999235075645696,1.2437806922739203,0.6501136363636364,0.722646699453655,0.7868421052631579,0.784159546723746,1.0,0.8632352941176471,1.6357421875,0.2,5.825333699998737
13,0.0005996940693306837,1.2040233707427979,0.6706818181818182,0.6441405848452919,0.775,0.767690078828464,0.975,0.85,1.633984375,0.2,5.798337899999751
14,0.0005993118024955998,1.1620534935864535,0.6809090909090909,0.6597312092781067,0.7881578947368421,0.7826944847806969,0.975,0.8588235294117647,1.631922029194079,0.2,5.798282999996445
15,0.0005987769023215627,1.1254462484879928,0.6992045454545455,0.6427641360383285,0.7907894736842105,0.7821190401485721,0.95,0.8661764705882353,1.630078125,0.2,5.8226075999991735
16,0.0005980896420360653,1.0901787584478204,0.7210227272727273,0.5445844085592972,0.8184210526315789,0.813645203690518,1.0,0.8985294117647059,1.6283203125,0.2,5.775724699997227
17,0.0005972503726922827,1.0378447595509617,0.7392045454545455,0.6819229088331523,0.7960526315789473,0.7913619212456716,0.975,0.8779411764705882,1.62734375,0.2,5.816262000000279
18,0.0005962595229897549,1.0344555232741617,0.7414772727272727,0.5087097375016464,0.8421052631578947,0.8392997841083204,1.0,0.8911764705882353,1.626171875,0.2,5.766969600001175
19,0.0005951175990554061,1.0523524596474387,0.740909090909091,0.4791417222273977,0.8486842105263158,0.8456657541589871,0.975,0.9044117647058824,1.6254381644098381,0.2,5.807874399994034
20,0.0005938251841850148,1.0088807769255204,0.7515909090909091,0.45878654153723464,0.85,0.8469163851180814,1.0,0.9264705882352942,1.6236328125,0.2,5.816030100002536
21,0.0005923829385452652,1.0105621355230159,0.7681818181818182,0.44631100516570243,0.85,0.8471320879366446,1.0,0.9235294117647059,1.6226498252467105,0.2,5.798067299998365
22,0.0005907915988365347,0.9634572397578847,0.7832954545454546,0.43999482706973425,0.8697368421052631,0.8673457088042905,1.0,0.913235294117647,1.62179790672503,0.2,5.786846499999228
23,0.0005890519779165858,1.0124733040549538,0.7780681818181818,0.46164157516077947,0.8671052631578947,0.8642277503211646,1.0,0.925,1.6207262541118421,0.2,5.810641999996733
24,0.0005871649643853574,0.9599116702513262,0.7876136363636363,0.6054774930602626,0.8644736842105263,0.8615834504175653,1.0,0.9338235294117647,1.6201248972039475,0.2,5.77523199999996
25,0.000585131522131068,1.0095803954384543,0.7727272727272727,0.5588902573836477,0.8592105263157894,0.8570877520301338,1.0,0.9220588235294118,1.620083775018391,0.2,5.780736000000616
26,0.0005829526898378601,0.9939648558876731,0.7865909090909091,0.4127932259910985,0.8855263157894737,0.8838629285647317,1.0,0.95,1.6200002569901315,0.2,5.793500299994776
27,0.0005806295804552395,0.9601478795571761,0.7975,0.3953893743063274,0.8763157894736842,0.8750445317566804,1.0,0.9411764705882353,1.6207044074409886,0.2,5.733177699999942
28,0.0005781633806295796,0.942233189236034,0.8006818181818182,0.5014191633776615,0.8881578947368421,0.8853842635960442,1.0,0.9411764705882353,1.620530941611842,0.2,5.82095290000143
29,0.0005755553500979822,0.884763131575151,0.8160227272727273,0.3726579427719116,0.9078947368421053,0.9069208068572173,1.0,0.9529411764705882,1.6208984375,0.2,5.767124900005001
30,0.0005728068210448012,0.9142859530448914,0.8188636363636363,0.4092243166346299,0.8947368421052632,0.8938101686163499,1.0,0.9544117647058824,1.6212852076480264,0.2,5.788364599997294
31,0.0005699191974211625,0.8998621056296608,0.8204545454545454,0.36299229421113666,0.906578947368421,0.9056970015967952,1.0,0.9602941176470589,1.6224416632401315,0.2,5.7764368999996805
32,0.0005668939542278249,0.937794266614047,0.8105681818181818,0.42069742177662095,0.881578947368421,0.8795927011705762,1.0,0.9426470588235294,1.623912931743421,0.2,5.807186700003513
33,0.0005637326367617472,0.9640257735685869,0.7929545454545455,0.4673836162215785,0.881578947368421,0.8803441506844656,1.0,0.9352941176470588,1.6250912352612144,0.2,5.787757700003567
34,0.0005604368598267504,0.9122711567445235,0.819659090909091,0.41480325334950496,0.8986842105263158,0.8979430349891775,1.0,0.95,1.6263659025493422,0.2,5.7931282999998075
35,0.0005570083069086733,0.9997554380243475,0.7717045454545455,0.5928794245970876,0.8315789473684211,0.8259205293077085,0.975,0.8823529411764706,1.6270430753105565,0.2,5.798164800005907
36,0.0005534487293154471,0.9754567564617503,0.7804545454545454,0.3386637533965864,0.9052631578947369,0.9042666371163486,1.0,0.9514705882352941,1.627171570376346,0.2,5.753174000004947
37,0.0005497599452825259,0.9231103641336614,0.8113636363636364,0.3920066362933109,0.9,0.8986103694403283,1.0,0.9485294117647058,1.6268182089454248,0.2,5.781440700004168
38,0.0005459438390441295,0.8731754649769176,0.8286363636363636,0.38441667494020965,0.9,0.8983008670656704,1.0,0.9485294117647058,1.626044666139703,0.2,5.788154800000484
39,0.0005420023598707758,0.9023273658752441,0.8085227272727272,0.4363848127816853,0.8868421052631579,0.8853112592484067,1.0,0.9367647058823529,1.6236700773239137,0.2,5.7754286999988835
40,0.0005379375210735911,0.893924127925526,0.81625,0.37756998570341815,0.906578947368421,0.9066511975461508,1.0,0.9558823529411765,1.6189273194262856,0.2,5.852887599998212
41,0.0005337513989759092,0.8661798641898415,0.8354545454545454,0.40819233028512253,0.8986842105263158,0.8979054767034403,1.0,0.9602941176470589,1.6111919189754285,0.2,5.809780099996715
42,0.0005294461318526833,0.9479761069471185,0.8011363636363636,0.4058760796722613,0.9105263157894737,0.9097740621372722,1.0,0.9602941176470589,1.5982396213631882,0.2,5.779452600007062
43,0.0005250239188382536,1.0432043439691716,0.7588636363636364,0.46289201096484534,0.8631578947368421,0.8585200142047011,0.975,0.9073529411764706,1.5824771303879588,0.2,5.777810699997644
44,0.0005204870188030272,0.9144329235770485,0.8029545454545455,0.46901916453712866,0.8828947368421053,0.8773405618951304,0.975,0.9205882352941176,1.562985712603519,0.2,5.769337699995958
45,0.0005158377491996452,0.8706512928009034,0.8234090909090909,0.412211212045268,0.8921052631578947,0.8908923222830403,1.0,0.9382352941176471,1.5368838661595394,0.2,5.79826929999399
46,0.0005110784848792257,0.9588058963688937,0.8013636363636364,0.46690112697450736,0.8828947368421053,0.8824114015848693,1.0,0.9367647058823529,1.4979472919514305,0.2,5.798746699998446
47,0.0005062116568782877,0.9052952569181268,0.8253409090909091,0.3511562595241948,0.9197368421052632,0.9193628488553376,1.0,0.9661764705882353,1.4429231361338968,0.21842105263157896,5.8029211000030045
48,0.0005012397511769754,0.8634497313065962,0.8329545454545455,0.42165000219094123,0.9039473684210526,0.9032300448071453,1.0,0.9441176470588235,1.373583982492748,0.28289473684210525,5.797542300002533
49,0.0004961653074292177,0.8420107555389404,0.8393181818181819,0.41727378650715474,0.9092105263157895,0.9092640984334569,1.0,0.9647058823529412,1.2856946462079097,0.38421052631578945,5.78571149999334
50,0.0004909909176654702,0.8079960781877691,0.8534090909090909,0.3907822304650357,0.9105263157894737,0.9099052215197675,1.0,0.9485294117647058,1.1826576615634719,0.5421052631578948,5.810678200003167
51,0.00048571922496870357,0.7891078240221197,0.86375,0.4734000594992387,0.8881578947368421,0.88582477542951,1.0,0.9382352941176471,1.0670085725031402,0.6526315789473685,5.788251700003457
52,0.00048035292212431514,0.7559973471814936,0.8777272727272727,0.3665542310790012,0.906578947368421,0.906022718273146,1.0,0.9426470588235294,0.9509309486338967,0.7381578947368421,5.7814294999989215
53,0.0004748947502446508,0.856964637149464,0.8426136363636364,0.41044145320591174,0.9039473684210526,0.9029157159334181,1.0,0.9632352941176471,0.8504057231702302,0.7868421052631579,5.7829048999992665
54,0.00046934749736884306,0.8583706647699529,0.8388636363636364,0.42045106793704784,0.8763157894736842,0.8751607811615465,1.0,0.9323529411764706,0.751408788091258,0.843421052631579,5.791363399999682
55,0.0004637139970386777,0.828680743304166,0.8529545454545454,0.4127112526642649,0.8973684210526316,0.8956475801111212,1.0,0.9382352941176471,0.6791332053510766,0.8802631578947369,5.800575299996126
56,0.000457997126851218,0.7672437340562994,0.8694318181818181,0.38203601397966086,0.9052631578947369,0.9042585993707337,1.0,0.95,0.6098595867031499,0.8947368421052632,5.773762099997839
57,0.00045219980698892607,0.8219098654660312,0.8476136363636364,0.453473678074385,0.881578947368421,0.8803904962537688,1.0,0.9367647058823529,0.5580781632348111,0.8973684210526316,5.842478499995195
58,0.0004463249987280305,0.7779700495980003,0.8793181818181818,0.36028680989616796,0.9039473684210526,0.9027417438167212,1.0,0.9485294117647058,0.5156898501672242,0.9092105263157895,5.7446740999948815
59,0.000440375702925904,0.7914533374526284,0.8719318181818182,0.39548605272644444,0.9,0.8987169309551805,1.0,0.9411764705882353,0.48353654961836967,0.9118421052631579,5.802641500005848
60,0.0004343549584882226,0.8147003659335049,0.8534090909090909,0.4185306891014701,0.8855263157894737,0.8844734420169204,1.0,0.95,0.4647703578597621,0.9171052631578948,5.759858299999905
61,0.00042826584081669025,0.7990582659027793,0.8719318181818182,0.3876999208801671,0.8960526315789473,0.8949490194577108,1.0,0.9411764705882353,0.4474228717778858,0.9144736842105263,5.808455300000787
62,0.00042211146023812037,0.7833369107679887,0.8778409090909091,0.3957431833995016,0.9157894736842105,0.9150381791123635,1.0,0.9588235294117647,0.43069436895219904,0.9157894736842105,5.7577692000049865
63,0.0004158949604156783,0.7396786904335022,0.8878409090909091,0.3260770436964537,0.9144736842105263,0.9136214073599558,1.0,0.9588235294117647,0.4167876896105315,0.9184210526315789,5.786682600002678
64,0.0004096195167430953,0.7228229019858621,0.8910227272727272,0.36618986694436323,0.9197368421052632,0.9184354987458556,1.0,0.9573529411764706,0.4053507048832743,0.9184210526315789,5.770811800000956
65,0.0004032883347226749,0.7387264771894975,0.8943181818181818,0.36207129265132704,0.9026315789473685,0.9008941562067845,1.0,0.95,0.39838612675666807,0.9157894736842105,5.7969453999976395
66,0.0003969046483279189,0.7405644483999773,0.8936363636363637,0.3838397374278621,0.8960526315789473,0.8950432427571069,1.0,0.9367647058823529,0.3919368188632162,0.9144736842105263,5.766038499998103
67,0.0003904717183516109,0.7430309174277566,0.8829545454545454,0.4053664358038651,0.9078947368421053,0.9070660568684608,1.0,0.9455882352941176,0.387970190926602,0.9131578947368421,5.787134599995625
68,0.0003839928307402005,0.6835797905921936,0.9019318181818182,0.3541047758177707,0.9144736842105263,0.9135640784089445,1.0,0.95,0.3816854367130681,0.9144736842105263,5.780684299999848
69,0.00037747129491533916,0.6797099167650397,0.9096590909090909,0.35699968651721353,0.9092105263157895,0.9081665231945744,1.0,0.9529411764705882,0.375673876938067,0.9171052631578948,5.8120101999957114
70,0.0003709104420834241,0.7624626770886508,0.8843181818181818,0.3658437634769239,0.9144736842105263,0.9135660456312357,1.0,0.9529411764705882,0.3762969167608964,0.9171052631578948,5.770034299996041
71,0.00036431362353401533,0.6903338215567849,0.9109090909090909,0.3916407534950658,0.9131578947368421,0.9123904571834972,1.0,0.9367647058823529,0.37264062919114765,0.9197368421052632,5.793905700003961
72,0.0003576842089279937,0.7149037731777538,0.9025,0.4308582895680478,0.9118421052631579,0.9107905426967988,1.0,0.9397058823529412,0.3717454216982189,0.9184210526315789,5.773187900005723
73,0.0003510255845763356,0.7361197684027931,0.8957954545454545,0.3953742569998691,0.9157894736842105,0.9150152799596973,1.0,0.9544117647058824,0.3712214410305023,0.9184210526315789,5.783575399997062
74,0.0003443411517103819,0.6852790790254419,0.90375,0.41943391498766447,0.8894736842105263,0.8885930973659215,1.0,0.9367647058823529,0.3667911736588729,0.9210526315789473,5.7838859999974375
75,0.0003376343247444856,0.7016335222937844,0.9117045454545455,0.3687356246145148,0.9092105263157895,0.9081039834218311,1.0,0.9558823529411765,0.3650645202712009,0.9223684210526316,5.7611415999999736
76,0.0003309085295319264,0.7516602211648767,0.8946590909090909,0.34283688099760756,0.9197368421052632,0.9192579761671732,1.0,0.961764705882353,0.3670666337013245,0.9223684210526316,5.785073200000625
77,0.0003241672016149815,0.6781288320367986,0.915,0.38639253283801833,0.906578947368421,0.9057004381946199,1.0,0.9470588235294117,0.3632586839951967,0.9236842105263158,5.80748229999881
78,0.00031741378447004763,0.7112545149976557,0.9013636363636364,0.41768847013774674,0.8986842105263158,0.8982536925103171,1.0,0.9426470588235294,0.36130298878017225,0.9276315789473685,5.768801899997925
79,0.00031065172774871004,0.6896645855903626,0.91375,0.3894692665652225,0.9144736842105263,0.9138437073893277,1.0,0.9529411764705882,0.35899842977523805,0.9236842105263158,5.801967799998238
80,0.00030388448551565744,0.6639819648049095,0.920340909090909,0.39640575208162004,0.9013157894736842,0.9005546271373005,1.0,0.9264705882352942,0.35802403406093,0.9236842105263158,5.796555100001569
81,0.0002971155144843426,0.645090785893527,0.9230681818181818,0.3650176208270223,0.9013157894736842,0.9004872972760355,1.0,0.9455882352941176,0.35456173545435854,0.9263157894736842,5.777140100006363
82,0.0002903482722512899,0.7131029735911977,0.9013636363636364,0.3681462331822044,0.9144736842105263,0.913992189657533,1.0,0.9529411764705882,0.3562767433492761,0.9223684210526316,5.897230900001887
83,0.0002835862155299524,0.6596267169172113,0.9301136363636363,0.32654049584740086,0.9210526315789473,0.920650330240288,1.0,0.9529411764705882,0.35576846474095397,0.9236842105263158,5.794511300002341
84,0.00027683279838501855,0.6954214059222829,0.9089772727272727,0.4014128029346466,0.9105263157894737,0.9101429926051816,1.0,0.9544117647058824,0.35659685542708947,0.9223684210526316,5.774483100001817
85,0.00027009147046807365,0.6727317946607416,0.9193181818181818,0.3746632626182155,0.9171052631578948,0.9165068015870871,1.0,0.9602941176470589,0.35570052203379177,0.9223684210526316,5.7925388000003295
86,0.0002633656752555145,0.6689401643926447,0.91625,0.38795535438939144,0.8894736842105263,0.8886403143451297,1.0,0.9367647058823529,0.3522383843597613,0.9236842105263158,5.787478099999134
87,0.00025665884828961807,0.6826637281071056,0.9065909090909091,0.41574947928127487,0.9039473684210526,0.9029956252435231,1.0,0.9441176470588235,0.35062721685359355,0.925,5.810694400002831
88,0.00024997441542366436,0.6327248627489264,0.9322727272727273,0.35796749717310855,0.9144736842105263,0.914241503278691,1.0,0.9529411764705882,0.3506919459292763,0.9223684210526316,5.795341600001848
89,0.00024331579107200632,0.7101460638913242,0.9056818181818181,0.38502727339142245,0.9052631578947369,0.9045166635855129,1.0,0.9544117647058824,0.3541393082392843,0.925,5.786125200000242
90,0.0002366863764659847,0.6364355327866295,0.9240909090909091,0.3936474442481995,0.9013157894736842,0.900855764592114,1.0,0.9382352941176471,0.35148138686230307,0.9236842105263158,5.784158000002208
91,0.0002300895579165759,0.6693351605805484,0.9282954545454546,0.34491745829582215,0.9131578947368421,0.9126910221828304,1.0,0.95,0.3525481365228954,0.9223684210526316,5.738977000000887
92,0.0002235287050846607,0.6621226180683483,0.9260227272727273,0.36982317472759046,0.9157894736842105,0.9147138581805591,1.0,0.9426470588235294,0.3512795702407235,0.9236842105263158,5.763120199997502
93,0.00021700716925979942,0.6500998542525551,0.9345454545454546,0.3464426947267432,0.906578947368421,0.9060736036858202,1.0,0.9470588235294117,0.35092403951444123,0.925,5.792111399998248
94,0.00021052828164838913,0.6845295362039046,0.9228409090909091,0.3746118636507737,0.9092105263157895,0.9087086799900159,1.0,0.9573529411764706,0.352442530268117,0.925,5.757581099998788
95,0.00020409535167208103,0.6819879455999894,0.9230681818181818,0.41770959088676857,0.8986842105263158,0.8978959293556723,1.0,0.95,0.3533921884863,0.9263157894736842,5.775527500001772
96,0.00019771166527732506,0.6628705742142417,0.9414772727272728,0.3964328169822693,0.9013157894736842,0.900052170171034,1.0,0.9470588235294117,0.3545170031095806,0.9236842105263158,5.803868499999226
97,0.00019138048325690465,0.6400525307655335,0.9396590909090909,0.4002832503695237,0.9078947368421053,0.9068800299304008,1.0,0.95,0.3528976431018428,0.9236842105263158,5.77778440000111
98,0.00018510503958432174,0.6657421599734913,0.945,0.32458335537659494,0.9223684210526316,0.921873670196858,1.0,0.9661764705882353,0.3534907281398773,0.9210526315789473,5.769547700001567
99,0.0001788885397618797,0.6816212174025449,0.9214772727272728,0.42465499106206395,0.9,0.8989567402117352,1.0,0.9529411764705882,0.35382112233262314,0.9210526315789473,5.764993600001617
100,0.00017273415918330973,0.6280982927842573,0.9518181818181818,0.3651363971986269,0.9052631578947369,0.9046795033057418,1.0,0.9544117647058824,0.3525455666215796,0.9263157894736842,5.791435399994953
101,0.00016664504151177735,0.6505988959832625,0.9345454545454546,0.3837641672084206,0.9144736842105263,0.9134607625212254,1.0,0.9573529411764706,0.35246967547818236,0.9223684210526316,5.760610299999826
102,0.00016062429707409598,0.6536427226933565,0.9468181818181818,0.378719289992985,0.9026315789473685,0.9018715912704984,1.0,0.9558823529411765,0.3548462720293748,0.9223684210526316,5.765443099997356
103,0.00015467500127196946,0.632739796855233,0.9361363636363637,0.3442328205234126,0.9092105263157895,0.9085033782906773,1.0,0.9514705882352941,0.35434610435837194,0.9236842105263158,5.768713999997999
104,0.0001488001930110739,0.6676093849268827,0.9321590909090909,0.4405458949114147,0.9,0.8990231335148897,1.0,0.9485294117647058,0.35567426242326433,0.9197368421052632,5.783155599994643
105,0.00014300287314878202,0.6440973457423124,0.9403409090909091,0.38396309206360263,0.9157894736842105,0.9152744473455903,1.0,0.9514705882352941,0.35627545871232685,0.9210526315789473,5.764720200000738
106,0.00013728600296132235,0.6686036924882368,0.9286363636363636,0.39391118068444103,0.8986842105263158,0.8981343304216967,1.0,0.9367647058823529,0.35726021120422763,0.9210526315789473,5.759645800004364
107,0.00013165250263115694,0.6266078704053706,0.9451136363636363,0.3748103101002543,0.9092105263157895,0.9087329674204045,1.0,0.9426470588235294,0.35602216155905475,0.9210526315789473,5.784199499998067
108,0.0001261052497553492,0.6318910612843254,0.9397727272727273,0.3648087341534464,0.9052631578947369,0.9046778116577416,1.0,0.9455882352941176,0.35668744476217973,0.9197368421052632,5.758110300004773
109,0.0001206470778756849,0.664478345784274,0.9393181818181818,0.43022453000670985,0.8907894736842106,0.889803411966624,1.0,0.9382352941176471,0.35724615737011556,0.9210526315789473,5.75805269999546
110,0.0001152807750312964,0.6183432381803339,0.9454545454545454,0.31958802844348705,0.9184210526315789,0.9180140597422437,1.0,0.9588235294117647,0.3565326900858628,0.9197368421052632,5.766873799999303
111,0.00011000908233452982,0.6648669923435558,0.9188636363636363,0.3472227400855014,0.9105263157894737,0.9099810788365496,1.0,0.9558823529411765,0.35873999250562566,0.9157894736842105,5.783235499999137
112,0.00010483469257078224,0.641841098503633,0.9451136363636363,0.3702089017943332,0.9052631578947369,0.9044687040272029,1.0,0.9441176470588235,0.3583044757968501,0.9144736842105263,5.778511600001366
113,9.976024882302456e-05,0.6537829210541465,0.9351136363636363,0.35972105421518025,0.9197368421052632,0.9192053568475049,1.0,0.9544117647058824,0.359812846622969,0.9131578947368421,5.771198900001764
114,9.478834312171236e-05,0.642041964747689,0.9321590909090909,0.36378543220068277,0.9184210526315789,0.9178191905560693,1.0,0.9514705882352941,0.36140048472504865,0.9131578947368421,5.770051100000273
115,8.992151512077429e-05,0.6398525974967263,0.9419318181818181,0.3282527716536271,0.9157894736842105,0.9151123846910064,1.0,0.9426470588235294,0.3629305394072282,0.9144736842105263,5.806703700000071
116,8.516225080035476e-05,0.6471142868562179,0.9484090909090909,0.3936269650333806,0.9052631578947369,0.9046833229789015,1.0,0.9455882352941176,0.36179223248833103,0.9157894736842105,5.773451699998986
117,8.051298119697266e-05,0.6409837904843417,0.9411363636363637,0.3766857749537418,0.9171052631578948,0.9164477576434379,1.0,0.9514705882352941,0.36118782507745845,0.9144736842105263,5.78146530000231
118,7.597608116174637e-05,0.6166687967560508,0.9535227272727272,0.38199398705833837,0.906578947368421,0.9058397814070094,1.0,0.9397058823529412,0.36004510145438345,0.9144736842105263,5.757093000000168
119,7.155386814731662e-05,0.6528018680485812,0.93875,0.34332829619708816,0.906578947368421,0.9061342431750251,1.0,0.9485294117647058,0.3618329490485944,0.9144736842105263,5.90619219999644
120,6.724860102409081e-05,0.6343760793859309,0.94125,0.37968131617495887,0.9039473684210526,0.9032587707475555,1.0,0.9441176470588235,0.36152970163445725,0.9157894736842105,5.822961400001077
121,6.306247892640888e-05,0.6166428418592973,0.9402272727272727,0.3596543958312587,0.9078947368421053,0.9075348555322424,1.0,0.9529411764705882,0.3604654415657646,0.9157894736842105,5.78252899999643
122,5.899764012922409e-05,0.6513196430423043,0.9390909090909091,0.34392266555836326,0.9144736842105263,0.9139552880359185,1.0,0.9573529411764706,0.36076250672340393,0.9144736842105263,5.760597100001178
123,5.5056160955870474e-05,0.5950489694421942,0.9572727272727273,0.3322017478315454,0.9131578947368421,0.9126409493674048,1.0,0.9470588235294117,0.3580391337997035,0.9131578947368421,5.769180800001777
124,5.1240054717474066e-05,0.6224865731326017,0.9544318181818182,0.3807927172434957,0.9105263157894737,0.9098842950733331,1.0,0.9441176470588235,0.3576187130651976,0.9131578947368421,5.747349699995539
125,4.755127068455278e-05,0.6210202412171797,0.9417045454545454,0.35899971315735263,0.9092105263157895,0.9085310930182846,1.0,0.9514705882352941,0.35829861383689077,0.9118421052631579,5.7446665999959805
126,4.399169309132677e-05,0.6070539303259416,0.9543181818181818,0.3376386945184908,0.9118421052631579,0.9112612769216266,1.0,0.9455882352941176,0.3580086162215785,0.9118421052631579,5.8017703000004985
127,4.0563140173249585e-05,0.626051324931058,0.9493181818181818,0.3497232531246386,0.906578947368421,0.9060317044042814,1.0,0.9470588235294117,0.358870656239359,0.9131578947368421,5.785609400001704
128,3.726736323825278e-05,0.6501878359101035,0.9375,0.44012772409539475,0.9013157894736842,0.9005545674579416,1.0,0.9411764705882353,0.35981734489139755,0.9131578947368421,5.779725800006418
129,3.41060457721751e-05,0.6519999157298695,0.9381818181818182,0.3667051619605014,0.9078947368421053,0.9073259152743093,1.0,0.9426470588235294,0.362346529333215,0.9144736842105263,5.803300700004911
130,3.1080802578837415e-05,0.5937441561438821,0.9631818181818181,0.3578612487567098,0.9092105263157895,0.9085332039691268,1.0,0.9470588235294117,0.3607209061321459,0.9144736842105263,5.7631655000004685
131,2.8193178955198895e-05,0.6220854271541942,0.9479545454545455,0.35114457042593705,0.9092105263157895,0.9085637859025052,1.0,0.9485294117647058,0.3602379256173184,0.9144736842105263,5.772810100002971
132,2.544464990201774e-05,0.6088558396426114,0.9588636363636364,0.36085204984012403,0.9157894736842105,0.9152671836774278,1.0,0.9529411764705882,0.35949000339759024,0.9131578947368421,5.7779110000046785
133,2.283661937042025e-05,0.6145615269921043,0.9427272727272727,0.36442429329219617,0.9092105263157895,0.9087639752459896,1.0,0.9485294117647058,0.35879171239702323,0.9144736842105263,5.76401579999947
134,2.0370419544760518e-05,0.6028269285505469,0.9567045454545454,0.33238991185238487,0.9210526315789473,0.9205341943624626,1.0,0.9529411764705882,0.3585768053406163,0.9131578947368421,5.770686399999249
135,1.804731016213988e-05,0.6306496828252619,0.9453409090909091,0.38891151923882333,0.9078947368421053,0.9072393827744598,1.0,0.9485294117647058,0.35876263976097106,0.9131578947368421,5.796108500006085
136,1.5868477868931964e-05,0.6541443738070402,0.9478409090909091,0.3936843062701978,0.9039473684210526,0.9033394089942235,1.0,0.9426470588235294,0.36116903110554344,0.9118421052631579,5.780563400003302
137,1.3835035614642541e-05,0.5955695138194345,0.9627272727272728,0.37371705707750824,0.906578947368421,0.9061247053798102,1.0,0.95,0.3602540662414149,0.9131578947368421,5.792210699997668
138,1.1948022083414199e-05,0.6199307801506736,0.9527272727272728,0.34351413155856886,0.9078947368421053,0.9074563668869422,1.0,0.9529411764705882,0.36022555608498424,0.9118421052631579,5.774121299997205
139,1.0208401163465185e-05,0.6142982842705467,0.9626136363636364,0.363421389617418,0.906578947368421,0.9061203238945585,1.0,0.9441176470588235,0.3592055465045728,0.9118421052631579,5.766682500005118
140,8.617061454734755e-06,0.6189334674315019,0.954659090909091,0.3330313425315054,0.9118421052631579,0.9112382186106824,1.0,0.9485294117647058,0.35968748487924274,0.9118421052631579,5.774347999999009
141,7.1748158149852224e-06,0.6278330817005852,0.9534090909090909,0.3543760591431668,0.9039473684210526,0.9034671803015886,1.0,0.9529411764705882,0.36037164048144693,0.9118421052631579,5.776335700000345
142,5.882400944593751e-06,0.6598791663213209,0.9322727272727273,0.3600491166114807,0.9092105263157895,0.9087886174413068,1.0,0.95,0.3626632681018428,0.9105263157894737,5.77601730000606
143,4.740477010244959e-06,0.5941977857459675,0.9628409090909091,0.33110086572797676,0.9131578947368421,0.9126771754213878,1.0,0.9485294117647058,0.361263475606316,0.9105263157894737,5.7768986000010045
144,3.7496273077172435e-06,0.5913198064674031,0.9548863636363636,0.324325241226899,0.9105263157894737,0.910071965881577,1.0,0.9544117647058824,0.35974209339995133,0.9105263157894737,5.785847500003001
145,2.9103579639347222e-06,0.6285202186757868,0.9478409090909091,0.3665721692537007,0.9078947368421053,0.907466111483377,1.0,0.9514705882352941,0.3598709109582399,0.9105263157894737,5.797478999993473
146,2.223097678437247e-06,0.6082989317720586,0.9498863636363636,0.34490179795967907,0.9105263157894737,0.9099948701724351,1.0,0.9514705882352941,0.3593683333773362,0.9105263157894737,5.782405000005383
147,1.6881975044002091e-06,0.6179236210476269,0.9501136363636363,0.35755823976115175,0.9105263157894737,0.9100987282728505,1.0,0.95,0.35898847078022206,0.9105263157894737,5.787963099995977
148,1.3059306693162125e-06,0.6092317315665159,0.9517045454545454,0.34875424033717106,0.9118421052631579,0.9113633562625292,1.0,0.9485294117647058,0.35849697683986864,0.9105263157894737,5.7990902999954415
149,1.0764924354303636e-06,0.6208838712085377,0.9473863636363636,0.38427670190208835,0.9026315789473685,0.9021209492083212,1.0,0.95,0.3584556990548184,0.9105263157894737,5.790731900000537
150,1e-06,0.5934804327921434,0.9631818181818181,0.3450271597034053,0.9092105263157895,0.9086770983789936,1.0,0.9514705882352941,0.35773026378531203,0.9092105263157895,5.7525580000001355
