epoch,lr,train_loss,train_accuracy,val_loss,val_accuracy,val_macro_f1,val_trial_accuracy,val_k3,ema_loss,ema_accuracy,seconds
1,5.9999999999999995e-05,1.451215925650163,0.4168181818181818,1.178817508095189,0.5460526315789473,0.5408967228315021,0.625,0.575,1.6103939671265453,0.2,6.769396800002141
2,0.00011999999999999999,1.21259783744812,0.5910227272727273,0.9546987470827605,0.6289473684210526,0.6127285315620963,0.625,0.6764705882352942,1.6132491237238833,0.2,6.116160300000047
3,0.00018,1.0588083681193265,0.6901136363636363,0.6846198044325176,0.7513157894736842,0.7420723724830953,0.85,0.8088235294117647,1.6198511989493118,0.2,6.0586136000056285
4,0.00023999999999999998,0.9777831697463989,0.7538636363636364,0.5787787330778021,0.8013157894736842,0.7948110200364299,0.95,0.8647058823529412,1.6352603347677934,0.2,6.086354400002165
5,0.0003,0.9330738756873391,0.7847727272727273,0.5386038943340904,0.8421052631578947,0.8404638904179395,1.0,0.9,1.6696931512732254,0.2,6.085197399996105
6,0.00035999999999999997,0.8757242800972679,0.8138636363636363,0.47668661945744567,0.8263157894736842,0.8218715576172733,0.975,0.8735294117647059,1.7266068314251146,0.2,6.048015499996836
7,0.00042,0.8710495654019442,0.8176136363636364,0.42537124972594414,0.8723684210526316,0.8718697466868959,1.0,0.9352941176470588,1.818090818430248,0.2,6.062370700004976
8,0.0004799999999999999,0.8739426896788857,0.8197727272727273,0.5468260319609392,0.8105263157894737,0.8074370670467532,1.0,0.8691176470588236,1.9330598511193928,0.2,6.023649000002479
9,0.00054,0.8917653296210549,0.819659090909091,0.5167266845703125,0.8342105263157895,0.8321911364667655,1.0,0.8970588235294118,2.1011869741113562,0.2,6.011827299997094
10,0.0005999999999999998,0.7941983381184665,0.8521590909090909,0.40712928771972656,0.8802631578947369,0.8787488268424923,1.0,0.9558823529411765,2.2740356442175416,0.2,6.0700247999993735
11,0.0006,0.809479782147841,0.8582954545454545,0.4625154614448547,0.8447368421052631,0.8402838674799614,1.0,0.9073529411764706,2.420886552333832,0.2,6.081956699999864
12,0.0005999235075645696,0.7893063566901467,0.8630681818181818,0.5015688444438734,0.825,0.8235478155667597,1.0,0.9058823529411765,2.5515409761353545,0.2,6.048377899998741
13,0.0005996940693306837,0.7496871519088745,0.8764772727272727,0.4618263464224966,0.8407894736842105,0.8373742469028539,1.0,0.9014705882352941,2.679428581501308,0.2,6.049213899997994
14,0.0005993118024955998,0.769185010953383,0.8719318181818182,0.38527324042822186,0.8802631578947369,0.8786142201806427,1.0,0.9485294117647058,2.788768085209947,0.2,6.034479900001315
15,0.0005987769023215627,0.7586342297900807,0.8676136363636363,0.4721424711377997,0.8289473684210527,0.8231134076640041,0.95,0.8867647058823529,2.9068788228850617,0.2,6.060473500001535
16,0.0005980896420360653,0.7555779428915544,0.8701136363636364,0.44822407584441337,0.8657894736842106,0.8641264224871297,1.0,0.9176470588235294,3.0415251079358554,0.2,6.024081400006253
17,0.0005972503726922827,0.7727772719209844,0.8801136363636364,0.44163637725930466,0.8736842105263158,0.8722846490400977,1.0,0.9558823529411765,3.205577649881965,0.2,6.072219200003019
18,0.0005962595229897549,0.757973944273862,0.87875,0.4240207872892681,0.8723684210526316,0.8702965714244364,1.0,0.9441176470588235,3.277672537220152,0.2,6.040677599994524
19,0.0005951175990554061,0.7433915851332925,0.8830681818181818,0.427602386788318,0.8486842105263158,0.8477138404868345,1.0,0.9235294117647059,3.3435334861278534,0.2,6.084024999996473
20,0.0005938251841850148,0.7534108231284402,0.8865909090909091,0.42258517710786114,0.8552631578947368,0.8535861695634732,1.0,0.9176470588235294,3.3580341543021954,0.2,6.059571500001766
21,0.0005923829385452652,0.7130626318671487,0.9040909090909091,0.4550117091128701,0.8539473684210527,0.852932635543235,1.0,0.9220588235294118,3.3156622634122246,0.2,6.059929600000032
22,0.0005907915988365347,0.70411485303532,0.9080681818181818,0.4439009007654692,0.8736842105263158,0.8718945682446332,1.0,0.9352941176470588,3.278567664560519,0.2013157894736842,6.020120400004089
23,0.0005890519779165858,0.7321949013796719,0.8964772727272727,0.4847695200066817,0.8460526315789474,0.8425090946372322,1.0,0.9088235294117647,3.273876791565042,0.20526315789473684,6.034431300002325
24,0.0005871649643853574,0.726471558375792,0.8906818181818181,0.3958431036848771,0.8710526315789474,0.8709617835849585,1.0,0.9411764705882353,3.207897789227335,0.24210526315789474,6.07776659999945
25,0.000585131522131068,0.6878965392979709,0.9195454545454546,0.5041417981448927,0.8447368421052631,0.8454719305410976,1.0,0.9117647058823529,3.1434532560800252,0.3013157894736842,6.087705799996911
26,0.0005829526898378601,0.7015325026078658,0.9077272727272727,0.4155664534945237,0.8789473684210526,0.8792157528701404,1.0,0.9323529411764706,3.07365096305546,0.3355263157894737,6.0582091999967815
27,0.0005806295804552395,0.7003570010445335,0.9131818181818182,0.37933594521723296,0.8842105263157894,0.8830124086439876,1.0,0.95,2.9573544147767516,0.3447368421052632,6.040952800001833
28,0.0005781633806295796,0.7018032321062955,0.9113636363636364,0.41989782295728983,0.8802631578947369,0.8791959842208795,1.0,0.95,2.8187658218961014,0.35,6.088502599995991
29,0.0005755553500979822,0.7082214962352406,0.9109090909090909,0.40260130198378313,0.8802631578947369,0.8795294636252423,1.0,0.9411764705882353,2.637275294881118,0.35657894736842105,6.086765899999591
30,0.0005728068210448012,0.6733274672248146,0.9194318181818182,0.40498042922270927,0.8789473684210526,0.87819735913875,1.0,0.9426470588235294,2.438416490429326,0.3763157894736842,6.051447099998768
31,0.0005699191974211625,0.7353387687423012,0.9067045454545455,0.5210105889721921,0.8328947368421052,0.8311746361198015,1.0,0.8985294117647059,2.2631509071902225,0.40131578947368424,6.036887800000841
32,0.0005668939542278249,0.6729299183325333,0.9214772727272728,0.41450211437124956,0.8723684210526316,0.871133032132476,1.0,0.9367647058823529,2.074791115522385,0.43157894736842106,6.048707499998272
33,0.0005637326367617472,0.6660538638721812,0.9295454545454546,0.44079814741485995,0.8578947368421053,0.8576482424750049,1.0,0.9294117647058824,1.8726485007687619,0.46710526315789475,6.0419038999971235
34,0.0005604368598267504,0.6851971660960804,0.9176136363636364,0.4843819674692656,0.8552631578947368,0.8532972835395949,1.0,0.913235294117647,1.6363326629525736,0.5210526315789473,6.047965199999453
35,0.0005570083069086733,0.6548469220508228,0.930340909090909,0.44190208158994976,0.8657894736842106,0.8646957826280067,1.0,0.9338235294117647,1.4067013789164393,0.5565789473684211,6.052379599997948
36,0.0005534487293154471,0.7234812888232145,0.90375,0.4066751988310563,0.8802631578947369,0.880362293634442,1.0,0.9455882352941176,1.1804460625899464,0.6118421052631579,6.066511199998786
37,0.0005497599452825259,0.6615992251309482,0.9313636363636364,0.4415210121556332,0.8552631578947368,0.8535212561127438,1.0,0.9205882352941176,0.9955879212994324,0.6657894736842105,6.0521229000005405
38,0.0005459438390441295,0.6692259732159701,0.9319318181818181,0.4597557061596921,0.8381578947368421,0.8376458956965458,1.0,0.9220588235294118,0.8460882084934335,0.7131578947368421,6.0928166000012425
39,0.0005420023598707758,0.6955486291105097,0.9278409090909091,0.4972621716951069,0.8473684210526315,0.8449780992624198,1.0,0.9102941176470588,0.7152229707492025,0.7513157894736842,6.057969599998614
40,0.0005379375210735911,0.6877719682996923,0.9281818181818182,0.39682107254078514,0.8802631578947369,0.8796873928003756,1.0,0.95,0.6208016646535773,0.7868421052631579,6.047186399999191
41,0.0005337513989759092,0.6899674413420938,0.9276136363636364,0.4477038728563409,0.8565789473684211,0.8569756258951265,1.0,0.9235294117647059,0.5537798026674672,0.8171052631578948,6.0107599000039045
42,0.0005294461318526833,0.6533342992175709,0.9345454545454546,0.3940265457881124,0.8842105263157894,0.8840031290977299,1.0,0.9529411764705882,0.5011345304940876,0.8289473684210527,6.024762699998973
43,0.0005250239188382536,0.6623101615905762,0.9338636363636363,0.4151327437476108,0.881578947368421,0.8809633611018837,1.0,0.9455882352941176,0.46795433508722406,0.8539473684210527,6.0524302999983774
44,0.0005204870188030272,0.7076716147769582,0.9193181818181818,0.47300218406476474,0.868421052631579,0.8674287491263852,1.0,0.9426470588235294,0.4458898836060574,0.8618421052631579,6.0445472999999765
45,0.0005158377491996452,0.6334718347679485,0.9432954545454545,0.3779031442968469,0.8789473684210526,0.8794160595832361,1.0,0.9602941176470589,0.4249669118931419,0.868421052631579,6.053898600002867
46,0.0005110784848792257,0.6858351761644537,0.9298863636363637,0.40490168395795323,0.8855263157894737,0.8845111737265989,1.0,0.9455882352941176,0.41189045090424387,0.8723684210526316,6.138900600002671
47,0.0005062116568782877,0.6478479201143438,0.9401136363636363,0.40380743020459225,0.8789473684210526,0.8788186568113628,1.0,0.9382352941176471,0.4022225627773686,0.8776315789473684,6.105177600002207
48,0.0005012397511769754,0.6657724688269875,0.9270454545454545,0.40052506358999956,0.868421052631579,0.868065417498217,1.0,0.9470588235294117,0.39522853619173953,0.8776315789473684,6.046537800000806
49,0.0004961653074292177,0.6576124782995744,0.9409090909090909,0.4282439373041454,0.8763157894736842,0.8761298395936479,1.0,0.9441176470588235,0.39088592623409474,0.8828947368421053,6.03411110000161
50,0.0004909909176654702,0.6720794880390167,0.9365909090909091,0.4193212007221423,0.8592105263157894,0.8577593986831111,1.0,0.9323529411764706,0.38753401103772617,0.8881578947368421,6.05162179999752
51,0.00048571922496870357,0.6607268060337413,0.9422727272727273,0.47069256337065446,0.8565789473684211,0.8572540529371515,1.0,0.9308823529411765,0.38696979754849486,0.8868421052631579,6.048234699999739
52,0.00048035292212431514,0.6635686753012917,0.9321590909090909,0.4518896011929763,0.8723684210526316,0.8726108518601322,1.0,0.9323529411764706,0.38696192722571526,0.8921052631578947,6.081844000000274
53,0.0004748947502446508,0.6555305526473305,0.93375,0.4306582017948753,0.8789473684210526,0.8787259040135769,1.0,0.9470588235294117,0.38667666786595395,0.8947368421052632,6.0318708999984665
54,0.00046934749736884306,0.6240718217329545,0.9467045454545454,0.40771243509493377,0.8736842105263158,0.8727984733975924,1.0,0.9455882352941176,0.38553346238638225,0.8960526315789473,6.040176399998018
55,0.0004637139970386777,0.6387960751490159,0.9397727272727273,0.42919685150447645,0.8710526315789474,0.8679753290553791,1.0,0.9220588235294118,0.38441049676192435,0.8947368421052632,6.075772999996843
56,0.000457997126851218,0.643121982054277,0.95,0.4521850193801679,0.8631578947368421,0.8632040137806646,1.0,0.9205882352941176,0.385012696291271,0.8934210526315789,6.103659300002619
57,0.00045219980698892607,0.629308384440162,0.9422727272727273,0.37202979592900526,0.8947368421052632,0.8949370825569488,1.0,0.9588235294117647,0.38276720454818325,0.8921052631578947,6.085772899998119
58,0.0004463249987280305,0.6613560912825844,0.9353409090909091,0.42866255107678863,0.8789473684210526,0.8774014116100975,1.0,0.9279411764705883,0.38469812462204384,0.8947368421052632,6.0881060999963665
59,0.000440375702925904,0.7038096469098871,0.9228409090909091,0.421915917020095,0.875,0.8737871590300665,1.0,0.9411764705882353,0.38792471666085093,0.8947368421052632,6.045884899998782
60,0.0004343549584882226,0.5997039305080067,0.9579545454545455,0.4082980504161433,0.8828947368421053,0.8823280244033429,1.0,0.9323529411764706,0.38756280227711326,0.8947368421052632,6.045999000001757
61,0.00042826584081669025,0.6461313631317832,0.93375,0.3471955540933107,0.8960526315789473,0.8958796368593717,1.0,0.9602941176470589,0.38599010266755757,0.8986842105263158,6.045535299999756
62,0.00042211146023812037,0.6048051326925105,0.95625,0.43135737431676763,0.875,0.8748203694118502,1.0,0.9323529411764706,0.3837988605624751,0.8986842105263158,6.04864500000258
63,0.0004158949604156783,0.6669828934019262,0.9363636363636364,0.423060206049367,0.8828947368421053,0.8821712904085958,1.0,0.9426470588235294,0.3834905533414138,0.9013157894736842,6.051879700004065
64,0.0004096195167430953,0.6688127420165322,0.9354545454545454,0.4097579548233434,0.8789473684210526,0.8787074119817921,1.0,0.9514705882352941,0.38240613435444076,0.9026315789473685,6.074349100003019
65,0.0004032883347226749,0.6217024796659296,0.9475,0.42787724545127465,0.8618421052631579,0.8604662942120704,1.0,0.9338235294117647,0.38327142721728275,0.8973684210526316,6.070601500003249
66,0.0003969046483279189,0.654868559403853,0.9403409090909091,0.41002839709583083,0.8868421052631579,0.8865483242179536,1.0,0.9426470588235294,0.38545564287587214,0.8960526315789473,6.0510065999988
67,0.0003904717183516109,0.6710948490012776,0.9355681818181818,0.4585172148127305,0.868421052631579,0.8683061651310752,1.0,0.9279411764705883,0.3878414357963361,0.8960526315789473,6.079270000001998
68,0.0003839928307402005,0.6161576873605902,0.9530681818181819,0.41013986593798585,0.8736842105263158,0.8730060506951108,1.0,0.9411764705882353,0.389512113207265,0.8921052631578947,6.076152699999511
69,0.00037747129491533916,0.6386633209748701,0.9379545454545455,0.43675946687397205,0.8618421052631579,0.8606898424169949,1.0,0.925,0.3903456433823234,0.8894736842105263,6.060612000001129
70,0.0003709104420834241,0.6831584232503718,0.9290909090909091,0.38488628895659194,0.8986842105263158,0.8985351350199681,1.0,0.9632352941176471,0.3908807042397951,0.8907894736842106,6.062297399999807
71,0.00036431362353401533,0.6887186708233574,0.9329545454545455,0.4188833136307566,0.8763157894736842,0.875898992443908,1.0,0.9426470588235294,0.38845797024275125,0.8894736842105263,6.057110800000373
72,0.0003576842089279937,0.597612650827928,0.9647727272727272,0.3827583720809535,0.8868421052631579,0.8868753645258056,1.0,0.9455882352941176,0.38597669068135715,0.8855263157894737,6.0779853999993065
73,0.0003510255845763356,0.6014442194591869,0.9640909090909091,0.368364795885588,0.8828947368421053,0.8833448162166784,1.0,0.9529411764705882,0.38462211238710503,0.8868421052631579,6.150837400004093
74,0.0003443411517103819,0.637065597447482,0.94875,0.412787106476332,0.8868421052631579,0.8867970996633827,1.0,0.9558823529411765,0.383773923861353,0.8868421052631579,6.112201500000083
75,0.0003376343247444856,0.6669670419259505,0.9388636363636363,0.4800900892207497,0.8565789473684211,0.8580715995051262,1.0,0.9308823529411765,0.38410275107935854,0.8868421052631579,6.052460599996266
76,0.0003309085295319264,0.61104780533097,0.9438636363636363,0.48438648393279626,0.85,0.8519374041951966,1.0,0.925,0.3839833303501731,0.8894736842105263,6.055096299998695
77,0.0003241672016149815,0.642600339976224,0.9454545454545454,0.4388792335987091,0.8631578947368421,0.8618978822867472,1.0,0.9308823529411765,0.38514777798401684,0.8907894736842106,6.050981299995328
78,0.00031741378447004763,0.6541906707937067,0.9415909090909091,0.43560220787399695,0.875,0.874895332110014,1.0,0.9308823529411765,0.386755612335707,0.8921052631578947,6.007433400001901
79,0.00031065172774871004,0.634493558623574,0.9555681818181818,0.40258050247242577,0.8960526315789473,0.8955778708344567,1.0,0.9544117647058824,0.3864897084863562,0.8894736842105263,6.084599399997387
80,0.00030388448551565744,0.6400567674636841,0.9502272727272727,0.4213482916355133,0.8723684210526316,0.8722268852858928,1.0,0.9441176470588235,0.38827695344623764,0.8907894736842106,6.058145599999989
81,0.0002971155144843426,0.6545386597243222,0.9411363636363637,0.4275380181638818,0.8723684210526316,0.8721220076242109,1.0,0.9441176470588235,0.3899817218906001,0.8868421052631579,6.039452500001062
82,0.0002903482722512899,0.6416193329204213,0.949659090909091,0.452995702153758,0.85,0.8483519617587758,1.0,0.9220588235294118,0.3896555859791605,0.8894736842105263,6.085581400002411
83,0.0002835862155299524,0.5905002182180231,0.96,0.38124582328294454,0.8986842105263158,0.8988385261538501,1.0,0.9544117647058824,0.3880785490337171,0.8934210526315789,6.083326300002227
84,0.00027683279838501855,0.6058745862137188,0.9510227272727273,0.3804666619551809,0.8986842105263158,0.8978295896396824,1.0,0.9588235294117647,0.385514750919844,0.8921052631578947,6.066261799998756
85,0.00027009147046807365,0.5980893876335838,0.9535227272727272,0.3873752794767681,0.8855263157894737,0.8847636116770021,1.0,0.9367647058823529,0.38312996374933345,0.8947368421052632,6.056755699995847
86,0.0002633656752555145,0.60945190039548,0.9478409090909091,0.3905813910459217,0.8973684210526316,0.89726736035661,1.0,0.9397058823529412,0.38147478605571544,0.8947368421052632,6.04434559999936
87,0.00025665884828961807,0.6212004468657754,0.9481818181818182,0.3838391755756579,0.8894736842105263,0.8895538599289179,1.0,0.95,0.3812369892471715,0.8934210526315789,6.064791299999342
88,0.00024997441542366436,0.6169740767912432,0.9575,0.36233014621232684,0.906578947368421,0.9064103455925144,1.0,0.9661764705882353,0.3803118244597786,0.8881578947368421,6.074090000001888
89,0.00024331579107200632,0.6379767725684427,0.9455681818181818,0.4185056193878776,0.881578947368421,0.8810286097352815,1.0,0.95,0.3773667175518839,0.8934210526315789,6.04610679999314
90,0.0002366863764659847,0.5993274468725378,0.9531818181818181,0.38273753210117945,0.8881578947368421,0.8882261379548808,1.0,0.9470588235294117,0.3782047469364969,0.8934210526315789,6.094041600001219
91,0.0002300895579165759,0.5744307524507696,0.9609090909090909,0.37533360437342994,0.8960526315789473,0.8958135985699265,1.0,0.9588235294117647,0.3769516800579272,0.8947368421052632,6.080054999998538
92,0.0002235287050846607,0.6170301925052296,0.9517045454545454,0.37009799292213036,0.9026315789473685,0.9027593522155941,1.0,0.9529411764705882,0.3761097145707984,0.8947368421052632,6.073753399999987
93,0.00021700716925979942,0.5982929509336298,0.9547727272727272,0.4114559782178778,0.8828947368421053,0.8819993015991114,1.0,0.9382352941176471,0.3738694030987589,0.8947368421052632,6.063946200003556
94,0.00021052828164838913,0.5806905291297219,0.9643181818181819,0.4120195897001969,0.8855263157894737,0.88489157383429,1.0,0.9382352941176471,0.37508135312481933,0.8960526315789473,6.0411424999983865
95,0.00020409535167208103,0.6211491738666187,0.95125,0.38734259323069925,0.8868421052631579,0.8869916457933462,1.0,0.9485294117647058,0.37635867407447415,0.8921052631578947,6.04361659999995
96,0.00019771166527732506,0.5764655565131794,0.9654545454545455,0.4135396461737783,0.8802631578947369,0.8796914901731245,1.0,0.9382352941176471,0.37787925318667764,0.8907894736842106,6.037599600000249
97,0.00019138048325690465,0.5784801977330988,0.9625,0.40950927734375,0.8868421052631579,0.8868134047715539,1.0,0.9573529411764706,0.37756516306023846,0.8947368421052632,6.057137399999192
98,0.00018510503958432174,0.5967117324742404,0.9571590909090909,0.39360688799305965,0.8907894736842106,0.8908014663364836,1.0,0.9470588235294117,0.37770747197301763,0.8921052631578947,6.068340600002557
99,0.0001788885397618797,0.5985770968957381,0.9571590909090909,0.3752250661975459,0.8894736842105263,0.8890805915531894,1.0,0.9529411764705882,0.3772799849510193,0.8934210526315789,6.043224000000919
100,0.00017273415918330973,0.6335773249105974,0.9430681818181819,0.39999052317518935,0.8710526315789474,0.8709396162281825,1.0,0.9308823529411765,0.3768303312753376,0.8921052631578947,6.115803499997128
101,0.00016664504151177735,0.6055853684382005,0.9602272727272727,0.36767634247478687,0.8894736842105263,0.8894879509233178,1.0,0.9514705882352941,0.3756305092259457,0.8894736842105263,6.093408399996406
102,0.00016062429707409598,0.5955822816762057,0.9606818181818182,0.38257518598907875,0.8868421052631579,0.8866084625714221,1.0,0.961764705882353,0.3735413394476238,0.8907894736842106,6.069513700000243
103,0.00015467500127196946,0.5806196520545266,0.9648863636363636,0.3461253517552426,0.9026315789473685,0.9024470883506126,1.0,0.9632352941176471,0.3727956680875075,0.8921052631578947,6.051022799998464
104,0.0001488001930110739,0.6305705481225794,0.9577272727272728,0.41853918778268917,0.8736842105263158,0.8730349300698188,1.0,0.9426470588235294,0.3714881498562662,0.8934210526315789,6.0791212000040105
105,0.00014300287314878202,0.6113441209359602,0.9555681818181818,0.41196529928006625,0.8894736842105263,0.8893422322400582,1.0,0.9602941176470589,0.3716757523386102,0.8947368421052632,6.060400700000173
106,0.00013728600296132235,0.6248174005204981,0.95625,0.40949241205265646,0.881578947368421,0.8813529163780395,1.0,0.9529411764705882,0.37282184832974485,0.8960526315789473,6.074670900001365
107,0.00013165250263115694,0.6291932697729631,0.9484090909090909,0.4039609808670847,0.8802631578947369,0.8801620434526634,1.0,0.9455882352941176,0.3736883072476638,0.8973684210526316,6.040680800004338
108,0.0001261052497553492,0.5645735018903559,0.9739772727272727,0.38695325349506576,0.8907894736842106,0.8905032525867604,1.0,0.9514705882352941,0.37202276963936654,0.8934210526315789,6.04620900000009
109,0.0001206470778756849,0.6058098794113506,0.9526136363636364,0.3795021452401814,0.8947368421052632,0.8945796929456277,1.0,0.9573529411764706,0.3729774073550576,0.8973684210526316,6.093222499999683
110,0.0001152807750312964,0.5967299904606559,0.9582954545454545,0.3723963688862951,0.9026315789473685,0.9027484707663795,1.0,0.9529411764705882,0.3733453038491701,0.8947368421052632,6.0674428999991505
111,0.00011000908233452982,0.5633994043957103,0.9722727272727273,0.3614919558951729,0.906578947368421,0.9066116977078817,1.0,0.9573529411764706,0.3722442617541865,0.8986842105263158,6.064413199994306
112,0.00010483469257078224,0.6158073665878989,0.9582954545454545,0.3864911524873031,0.8973684210526316,0.8972538329929372,1.0,0.9529411764705882,0.37307329711161163,0.8986842105263158,6.02820910000446
113,9.976024882302456e-05,0.5801721958680587,0.9681818181818181,0.3819621835884295,0.8855263157894737,0.8848818882615369,1.0,0.95,0.3720992248309286,0.8986842105263158,6.024640400006319
114,9.478834312171236e-05,0.6095907241647893,0.9611363636363637,0.38147350141876624,0.8907894736842106,0.8906791410510447,1.0,0.9470588235294117,0.3737450053817348,0.8973684210526316,6.026210099997115
115,8.992151512077429e-05,0.6386802291870117,0.9477272727272728,0.38219339565226906,0.9026315789473685,0.9026090501245013,1.0,0.961764705882353,0.37371737925629867,0.8986842105263158,6.091495500004385
116,8.516225080035476e-05,0.6044623455134305,0.97,0.3892244831511849,0.8868421052631579,0.886572158198506,1.0,0.9529411764705882,0.3737656449016772,0.9013157894736842,6.0245974999998
117,8.051298119697266e-05,0.6103334511410107,0.9623863636363637,0.40230399715273,0.8855263157894737,0.885325813527276,1.0,0.9485294117647058,0.37417377672697366,0.9026315789473685,6.04669410000497
118,7.597608116174637e-05,0.6227104423262856,0.9620454545454545,0.3955565609430012,0.8921052631578947,0.8918883063585954,1.0,0.9544117647058824,0.37425039190995063,0.9013157894736842,6.098007699998561
119,7.155386814731662e-05,0.6106059924038973,0.9490909090909091,0.3856205187345806,0.8947368421052632,0.8944974998374551,1.0,0.9514705882352941,0.3737504648534875,0.9039473684210526,6.076059799997893
120,6.724860102409081e-05,0.596873318715529,0.9717045454545454,0.3923750215455105,0.8881578947368421,0.8879249298139834,1.0,0.9558823529411765,0.3752095269529443,0.9013157894736842,6.026686700002756
121,6.306247892640888e-05,0.6400766218792309,0.9504545454545454,0.3617071054483715,0.9013157894736842,0.9012830284713221,1.0,0.9632352941176471,0.37589930578282005,0.9,6.047557000005327
122,5.899764012922409e-05,0.562715480110862,0.9769318181818182,0.3936582872742101,0.8907894736842106,0.8905428426809765,1.0,0.9558823529411765,0.37347596726919474,0.9013157894736842,6.055003599998599
123,5.5056160955870474e-05,0.6088640600984747,0.9645454545454546,0.3962721978363238,0.8947368421052632,0.8943741557492533,1.0,0.9588235294117647,0.3745400670327638,0.9013157894736842,6.059323600005882
124,5.1240054717474066e-05,0.5860372822934931,0.9704545454545455,0.3731506341382077,0.8960526315789473,0.8960196823090323,1.0,0.9558823529411765,0.3740358851457897,0.9013157894736842,6.032229399999778
125,4.755127068455278e-05,0.6094863252206282,0.9476136363636364,0.3738012210318917,0.9013157894736842,0.9013762520945295,1.0,0.9632352941176471,0.3731145752103705,0.8986842105263158,6.022169100004248
126,4.399169309132677e-05,0.5936444375731729,0.959659090909091,0.38086194427389847,0.8934210526315789,0.8935695810096658,1.0,0.9573529411764706,0.3723419986273113,0.8973684210526316,6.073414699996647
127,4.0563140173249585e-05,0.6123032974113117,0.9605681818181818,0.38728725941557635,0.8934210526315789,0.893350689217782,1.0,0.9558823529411765,0.37194213898558365,0.8960526315789473,6.03878860000259
128,3.726736323825278e-05,0.6239566894011064,0.9589772727272727,0.3917081327814805,0.8960526315789473,0.8960280700703042,1.0,0.9602941176470589,0.372846583002492,0.8986842105263158,6.089817699998093
129,3.41060457721751e-05,0.5815034129402854,0.9664772727272727,0.38521551772167806,0.8921052631578947,0.8922109556294202,1.0,0.9588235294117647,0.3731580238593252,0.8986842105263158,6.08465779999824
130,3.1080802578837415e-05,0.5777376068722118,0.9705681818181818,0.3641707574066363,0.9,0.9000215773490702,1.0,0.961764705882353,0.3728274687340385,0.8960526315789473,6.04465650000202
131,2.8193178955198895e-05,0.6121155518835241,0.9494318181818182,0.3782722880965785,0.9,0.9000393462861984,1.0,0.961764705882353,0.37250253683642337,0.8960526315789473,6.045086199999787
132,2.544464990201774e-05,0.6418369304050099,0.9321590909090909,0.36916238853805944,0.9026315789473685,0.9027644319918137,1.0,0.9602941176470589,0.3719539432149184,0.8986842105263158,6.05651790000411
133,2.283661937042025e-05,0.609657984863628,0.9507954545454546,0.3712472212942023,0.8986842105263158,0.8986579919668486,1.0,0.9602941176470589,0.37110250278523094,0.8986842105263158,6.003856199997244
134,2.0370419544760518e-05,0.6396104984933679,0.9585227272727272,0.36932774562584725,0.8947368421052632,0.8947985495652084,1.0,0.961764705882353,0.3718181418745141,0.8960526315789473,6.055491999999504
135,1.804731016213988e-05,0.6306392805142836,0.9504545454545454,0.3870688193722775,0.8960526315789473,0.8961478448666632,1.0,0.9544117647058824,0.3724880814552307,0.8973684210526316,6.049048200002289
136,1.5868477868931964e-05,0.5950593413006176,0.9606818181818182,0.3953781131066774,0.8934210526315789,0.8935269306305701,1.0,0.9588235294117647,0.37170201257655494,0.8960526315789473,6.073315800000273
137,1.3835035614642541e-05,0.631703511801633,0.9536363636363636,0.3955543929024746,0.8947368421052632,0.8947813177262829,1.0,0.9632352941176471,0.3720032550786671,0.8960526315789473,6.1018935999964015
138,1.1948022083414199e-05,0.6175437558781017,0.9689772727272727,0.3716045172590958,0.9052631578947369,0.9053748000817226,1.0,0.9632352941176471,0.3715856442325994,0.8960526315789473,6.083536800004367
139,1.0208401163465185e-05,0.5889977964487942,0.9695454545454546,0.3839152292201394,0.8986842105263158,0.898634564577207,1.0,0.9647058823529412,0.37082511437566656,0.8973684210526316,6.078789999999572
140,8.617061454734755e-06,0.6307038113203915,0.9569318181818182,0.3748179385536595,0.9013157894736842,0.9014600364227799,1.0,0.9647058823529412,0.3708953054327714,0.8986842105263158,6.037730700001703
141,7.1748158149852224e-06,0.5955366654829546,0.96125,0.3819364042658555,0.9,0.9002563984984686,1.0,0.9647058823529412,0.37030968854301854,0.8986842105263158,6.030368600004294
142,5.882400944593751e-06,0.6251872617548162,0.956590909090909,0.3656406593950171,0.9052631578947369,0.9053518467092448,1.0,0.9676470588235294,0.37037714970739266,0.8986842105263158,6.004112499998882
143,4.740477010244959e-06,0.5685828217593106,0.96875,0.38675368522342884,0.8894736842105263,0.8894196768400804,1.0,0.9602941176470589,0.36888773158976906,0.8986842105263158,6.052848200000881
144,3.7496273077172435e-06,0.6048484047976407,0.9694318181818182,0.38056640656370866,0.8973684210526316,0.8974154533456812,1.0,0.9602941176470589,0.36910785875822366,0.8986842105263158,6.049768900003983
145,2.9103579639347222e-06,0.5970545721054077,0.9577272727272728,0.3701736440784053,0.8960526315789473,0.896117688119413,1.0,0.9602941176470589,0.36915877524175145,0.8986842105263158,6.06343769999512
146,2.223097678437247e-06,0.6049782143939625,0.9676136363636364,0.3715190689814718,0.9,0.9000392219352481,1.0,0.9647058823529412,0.36903325193806696,0.8986842105263158,6.080520199997409
147,1.6881975044002091e-06,0.6329548200693997,0.9538636363636364,0.3553180101670717,0.9052631578947369,0.9052941797173135,1.0,0.9676470588235294,0.3695750195729105,0.8986842105263158,6.049225400005525
148,1.3059306693162125e-06,0.5941464473984458,0.9573863636363636,0.4121646281919981,0.8986842105263158,0.8987696583176799,1.0,0.961764705882353,0.3690692302427794,0.9,6.060592900001211
149,1.0764924354303636e-06,0.590648669871417,0.9680681818181818,0.3696285050166281,0.9039473684210526,0.9041406737546746,1.0,0.9676470588235294,0.36876983705319855,0.9,6.04730120000022
150,1e-06,0.5711920244043523,0.9751136363636363,0.3528877650436602,0.906578947368421,0.906616402670713,1.0,0.9676470588235294,0.3676886304428703,0.9026315789473685,6.042651800002204
