epoch,lr,train_loss,train_accuracy,val_loss,val_accuracy,val_macro_f1,val_trial_accuracy,val_k3,ema_loss,ema_accuracy,seconds
1,5.9999999999999995e-05,1.2729614080082285,0.5432954545454546,1.028599510694805,0.5697368421052632,0.5604663788035338,0.675,0.6132352941176471,1.6114411981482255,0.19736842105263158,15.31222070000149
2,0.00011999999999999999,1.085722678791393,0.6746590909090909,0.7130226273285715,0.718421052631579,0.7148375737695856,0.875,0.7588235294117647,1.62074295721556,0.2,13.99393229999987
3,0.00018,0.9435123085975647,0.7701136363636364,0.47925891060578196,0.8526315789473684,0.850787994750878,1.0,0.9088235294117647,1.6446481780001991,0.2,14.057251300000644
4,0.00023999999999999998,0.9177159855582497,0.7853409090909091,0.5183058368532281,0.8315789473684211,0.8311518217177509,1.0,0.9058823529411765,1.690921822347139,0.2,14.038882100001501
5,0.0003,0.9124768833680587,0.8061363636363637,0.5293230351648832,0.8381578947368421,0.8405647332799651,1.0,0.913235294117647,1.76991737704528,0.2,14.030587000001105
6,0.00035999999999999997,0.8676804557713595,0.8267045454545454,0.4340643336898402,0.8565789473684211,0.8562478102552875,1.0,0.9191176470588235,1.8940583875304775,0.2,14.048560100000032
7,0.00042,0.8361383099989458,0.8342045454545455,0.51078149895919,0.8105263157894737,0.8140691943182494,1.0,0.8705882352941177,2.0623641161542188,0.2,14.046169199998985
8,0.0004799999999999999,0.8311960038271817,0.8368181818181818,0.518137200255143,0.8197368421052632,0.8045245618882368,0.875,0.8455882352941176,2.298881129528347,0.2,14.057810199999949
9,0.00054,0.803499690619382,0.8586363636363636,0.628078660212065,0.7947368421052632,0.7878713709622632,0.9,0.8338235294117647,2.5766248199500534,0.2,14.288018799998099
10,0.0005999999999999998,0.7909566701542248,0.8635227272727273,0.3985184713413841,0.8894736842105263,0.8881713227590433,1.0,0.9588235294117647,2.8945876267395523,0.2,14.047960500000045
11,0.0006,0.751903940114108,0.8794318181818181,0.4112698605186061,0.8723684210526316,0.8735455995437501,1.0,0.9367647058823529,3.2239658556486432,0.2,14.017403400001058
12,0.0005999235075645696,0.7325724757801403,0.8880681818181818,0.4107342164767416,0.8842105263157894,0.8841989317399385,1.0,0.9588235294117647,3.4476579363408844,0.2,13.992667299997265
13,0.0005996940693306837,0.7528032784028487,0.8811363636363636,0.46767799979762026,0.8447368421052631,0.8448255299997027,1.0,0.9044117647058824,3.6019048190038454,0.2,14.066835899997386
14,0.0005993118024955998,0.7499106043035334,0.88625,0.4629743877210115,0.8513157894736842,0.8471571028955609,0.975,0.925,3.6886567367142753,0.2,14.079029299999092
15,0.0005987769023215627,0.725401410406286,0.8838636363636364,0.48105617385161553,0.8513157894736842,0.8468378260135638,1.0,0.9044117647058824,3.822787073921216,0.2,13.998076399999263
16,0.0005980896420360653,0.704236910126426,0.9060227272727273,0.44652370559541804,0.8592105263157894,0.8611746180986039,1.0,0.9279411764705883,3.930713252056586,0.2,14.045123100000637
17,0.0005972503726922827,0.6975738130916249,0.9051136363636364,0.476443581518374,0.8407894736842105,0.8413050271376055,1.0,0.9,3.9829019245740613,0.2,14.028645400001551
18,0.0005962595229897549,0.6806734774329446,0.9196590909090909,0.4272957953967546,0.8421052631578947,0.842803646298487,1.0,0.9235294117647059,3.9870476973684212,0.2,14.059609199997794
19,0.0005951175990554061,0.7115042679960077,0.9118181818181819,0.40554651006271963,0.8644736842105263,0.8653089358883903,1.0,0.9294117647058824,3.9827514648829636,0.2,14.03754359999948
20,0.0005938251841850148,0.7084864343296398,0.9132954545454546,0.47559557337509956,0.8473684210526315,0.8432073306769594,1.0,0.8985294117647059,3.967063502379154,0.2,14.025221899999451
21,0.0005923829385452652,0.6860498443516818,0.9293181818181818,0.39320811221474095,0.8960526315789473,0.8954638536474222,1.0,0.961764705882353,3.9515634234406445,0.2,14.059669199999917
22,0.0005907915988365347,0.6885970674861561,0.9147727272727273,0.4182978586146706,0.8657894736842106,0.8665259026185069,1.0,0.9426470588235294,3.884278869589693,0.2,14.046130599999742
23,0.0005890519779165858,0.6899328442053362,0.9270454545454545,0.4276324225099463,0.8710526315789474,0.8694501886391397,1.0,0.9367647058823529,3.839218139491583,0.2,14.040049199997156
24,0.0005871649643853574,0.661012892072851,0.9232954545454546,0.43808677949403463,0.868421052631579,0.8686106705658192,1.0,0.9352941176470588,3.787849386350105,0.2,14.038502999999764
25,0.000585131522131068,0.6833160842548717,0.9264772727272728,0.4723661228230125,0.8407894736842105,0.8429455735170167,1.0,0.9220588235294118,3.6891549762926603,0.2,14.05748009999661
26,0.0005829526898378601,0.6748841207677668,0.9293181818181818,0.3814892009684914,0.8855263157894737,0.885090389773648,1.0,0.9529411764705882,3.5958022667389167,0.2,14.033115599999292
27,0.0005806295804552395,0.6766649796745994,0.9286363636363636,0.41010316484852843,0.8697368421052631,0.8703903673024422,1.0,0.9382352941176471,3.4904730142731415,0.2013157894736842,14.054573800000071
28,0.0005781633806295796,0.6504835538430648,0.9315909090909091,0.5844546277272074,0.7842105263157895,0.7875107674093843,0.9,0.8352941176470589,3.285541815820493,0.21973684210526315,14.023586100000102
29,0.0005755553500979822,0.6673327567360617,0.9280681818181818,0.4628190987988522,0.8539473684210527,0.8497815064114598,1.0,0.9352941176470588,3.1344480818823763,0.2565789473684211,14.00004970000009
30,0.0005728068210448012,0.6546104538440705,0.9339772727272727,0.5117099558052264,0.8223684210526315,0.8242648349544985,1.0,0.8808823529411764,2.983693574447381,0.2855263157894737,14.014484999999695
31,0.0005699191974211625,0.6878052416714755,0.9205681818181818,0.513763627880498,0.825,0.8259338447456729,0.975,0.8911764705882353,2.82323110495743,0.3236842105263158,14.027032599999075
32,0.0005668939542278249,0.638854510567405,0.9478409090909091,0.4545267203920766,0.8486842105263158,0.8511978228734257,1.0,0.9279411764705883,2.6467037801679814,0.34342105263157896,14.022862599998916
33,0.0005637326367617472,0.6385899131948297,0.9372727272727273,0.43108078837394714,0.8592105263157894,0.8602097084514112,1.0,0.925,2.4362475741850704,0.35526315789473684,14.032949700002064
34,0.0005604368598267504,0.6558131711049513,0.9395454545454546,0.4981184310034702,0.825,0.8254196367374469,1.0,0.9073529411764706,2.17958695261102,0.38552631578947366,14.02222780000011
35,0.0005570083069086733,0.6085879943587563,0.9506818181818182,0.4529916471556613,0.8539473684210527,0.853233304086323,1.0,0.925,1.882874699329075,0.41710526315789476,14.00846029999957
36,0.0005534487293154471,0.6303447976979343,0.944659090909091,0.4521480359529194,0.8513157894736842,0.8498081335973998,1.0,0.9235294117647059,1.6523244360559866,0.45789473684210524,14.02831580000202
37,0.0005497599452825259,0.6606413165005771,0.9275,0.4475763819719616,0.8578947368421053,0.8577290705372741,1.0,0.9308823529411765,1.4245502672697368,0.5092105263157894,13.993414399999892
38,0.0005459438390441295,0.6309640713171526,0.9514772727272728,0.4553565179046832,0.8513157894736842,0.8522173734977786,1.0,0.9191176470588235,1.1663021289988569,0.5842105263157895,14.045526699999755
39,0.0005420023598707758,0.6662987739389593,0.9319318181818181,0.5153611026312176,0.8236842105263158,0.8257963114316038,1.0,0.8808823529411764,0.9464732519890132,0.6473684210526316,13.997331999999005
40,0.0005379375210735911,0.6091773903369904,0.9473863636363636,0.3788291137469442,0.8828947368421053,0.8815651764269209,1.0,0.9661764705882353,0.8183539937985571,0.7105263157894737,14.029309500001546
41,0.0005337513989759092,0.6858026137135246,0.9305681818181818,0.4137840670974631,0.8736842105263158,0.87516019481256,1.0,0.9455882352941176,0.6873134407557939,0.7631578947368421,14.036072399998375
42,0.0005294461318526833,0.6341780401359904,0.9454545454545454,0.4513478332444241,0.8565789473684211,0.8583867682828922,1.0,0.9323529411764706,0.6145303829720146,0.7894736842105263,14.025836900000286
43,0.0005250239188382536,0.6618131977861578,0.9343181818181818,0.4061233511096553,0.8921052631578947,0.8912542531214482,1.0,0.9485294117647058,0.5595530462892432,0.8026315789473685,14.00236170000062
44,0.0005204870188030272,0.6286157224395058,0.9520454545454545,0.5224853917172081,0.8315789473684211,0.8297678344231935,1.0,0.9014705882352941,0.527718794973273,0.8118421052631579,14.009247900001355
45,0.0005158377491996452,0.6587744511257518,0.9375,0.4067193686962128,0.881578947368421,0.8811449294775622,1.0,0.9573529411764706,0.4941082609327216,0.8276315789473684,14.036547799998516
46,0.0005110784848792257,0.635007924600081,0.9443181818181818,0.48799125207097904,0.8315789473684211,0.8275102270947665,1.0,0.9058823529411765,0.4773349972147691,0.8381578947368421,13.990816199999244
47,0.0005062116568782877,0.6617124885862524,0.9346590909090909,0.4264914261667352,0.8592105263157894,0.8597290774296564,1.0,0.9441176470588235,0.46233319734272205,0.85,14.037242300000798
48,0.0005012397511769754,0.6307800195433877,0.9485227272727272,0.4322227484301517,0.8605263157894737,0.8616011847433773,1.0,0.9338235294117647,0.4422923034743259,0.8631578947368421,14.01972139999998
49,0.0004961653074292177,0.6251323725960471,0.9569318181818182,0.36737743239653736,0.8828947368421053,0.8831680518279128,1.0,0.9514705882352941,0.4250781012208838,0.8671052631578947,14.012926999999763
50,0.0004909909176654702,0.6162679596380753,0.9505681818181818,0.44124820106907897,0.8605263157894737,0.8616105437312985,1.0,0.9191176470588235,0.40971796230265967,0.881578947368421,14.010740199999418
51,0.00048571922496870357,0.6654026030410419,0.9411363636363637,0.4659415787772129,0.8526315789473684,0.8541724428391225,1.0,0.9308823529411765,0.40352112650871275,0.8802631578947369,13.989895900002011
52,0.00048035292212431514,0.6118557750095021,0.955,0.46333441451976176,0.8644736842105263,0.8662551991143241,1.0,0.9308823529411765,0.3962983376101444,0.8868421052631579,14.024799400001939
53,0.0004748947502446508,0.6519986685839566,0.930340909090909,0.4404352671221683,0.8552631578947368,0.8551180867471098,1.0,0.9397058823529412,0.39260338137024325,0.8907894736842106,14.050063099999534
54,0.00046934749736884306,0.6239637296850031,0.9494318181818182,0.45668527766277917,0.8697368421052631,0.8698384732914807,1.0,0.9352941176470588,0.38568930437690335,0.8881578947368421,14.04327949999788
55,0.0004637139970386777,0.6391933159394698,0.9453409090909091,0.3965330026651684,0.8802631578947369,0.8807757732854791,1.0,0.9411764705882353,0.37700046771451046,0.8881578947368421,14.031460599999264
56,0.000457997126851218,0.5972917623953385,0.9620454545454545,0.4840888970776608,0.8421052631578947,0.8433006523014542,1.0,0.9044117647058824,0.3737569705436104,0.8855263157894737,14.024250600003143
57,0.00045219980698892607,0.6081290483474732,0.96,0.4346291793020148,0.8736842105263158,0.8741658019309118,1.0,0.9264705882352942,0.3695871453536184,0.8868421052631579,14.023749100000714
58,0.0004463249987280305,0.6064026576822454,0.9595454545454546,0.46674945181921906,0.8671052631578947,0.8668407670681573,1.0,0.9264705882352942,0.36585211408765694,0.8842105263157894,14.021247499997116
59,0.000440375702925904,0.6264182437549938,0.9532954545454545,0.45385653815771404,0.8631578947368421,0.8648004992388957,1.0,0.9323529411764706,0.36499372846201844,0.8868421052631579,13.985025899997709
60,0.0004343549584882226,0.6556273425709117,0.9389772727272727,0.4297878870838567,0.8776315789473684,0.8779980417262936,1.0,0.9308823529411765,0.36001779656661187,0.8907894736842106,14.024230799997895
61,0.00042826584081669025,0.5980133001370863,0.9625,0.431913917943051,0.8618421052631579,0.8635255964532546,1.0,0.9382352941176471,0.3579736006887336,0.8934210526315789,14.030960200001573
62,0.00042211146023812037,0.5982593506032771,0.9610227272727273,0.44773294674722774,0.8605263157894737,0.8608829877179881,1.0,0.9411764705882353,0.3613581604079196,0.8960526315789473,14.038454499997897
63,0.0004158949604156783,0.6089961278438568,0.9513636363636364,0.4576808325554195,0.8552631578947368,0.8567098973901327,1.0,0.9073529411764706,0.3599627846165707,0.8947368421052632,14.032399500003521
64,0.0004096195167430953,0.6446933850375088,0.9481818181818182,0.42897358928856094,0.8776315789473684,0.877592108838423,1.0,0.9455882352941176,0.35791830734202734,0.9,14.038582199998928
65,0.0004032883347226749,0.6061170222542502,0.9545454545454546,0.4218254084649839,0.8723684210526316,0.8728344400776636,1.0,0.9338235294117647,0.3576409587734624,0.8973684210526316,14.033576099998754
66,0.0003969046483279189,0.6179542686722496,0.9592045454545455,0.40729265683575683,0.8855263157894737,0.8862170340917425,1.0,0.9544117647058824,0.35929886635981106,0.8947368421052632,14.028125799999543
67,0.0003904717183516109,0.5491506442156705,0.9732954545454545,0.39881993312584724,0.8855263157894737,0.8849972375027413,1.0,0.9544117647058824,0.35801287230692413,0.9,14.056362000002991
68,0.0003839928307402005,0.6153561204129999,0.9534090909090909,0.45016150223581414,0.8631578947368421,0.8630144010984239,1.0,0.9411764705882353,0.35903360435837195,0.8986842105263158,14.037825899999007
69,0.00037747129491533916,0.6047464284029874,0.9556818181818182,0.42979013543379935,0.875,0.875837343940787,1.0,0.9485294117647058,0.35711846571219596,0.8973684210526316,14.00370710000061
70,0.0003709104420834241,0.6355680695447055,0.9482954545454545,0.4446538827921215,0.8671052631578947,0.868068325595645,1.0,0.9514705882352941,0.3565430496868334,0.8986842105263158,13.99975170000107
71,0.00036431362353401533,0.6528931518034502,0.9419318181818181,0.41967468167606153,0.868421052631579,0.8674523023336391,1.0,0.9485294117647058,0.35727707618161253,0.9026315789473685,14.043931699998211
72,0.0003576842089279937,0.6107729517329823,0.9585227272727272,0.40239474522440055,0.881578947368421,0.8805917592384589,1.0,0.9529411764705882,0.35958798119896335,0.8960526315789473,14.052315900000394
73,0.0003510255845763356,0.6327059494365346,0.9509090909090909,0.41563568068178075,0.8671052631578947,0.8692245459911183,1.0,0.9323529411764706,0.36111482319078947,0.8960526315789473,14.184699600002205
74,0.0003443411517103819,0.6624084106358615,0.949659090909091,0.5244397218290128,0.8210526315789474,0.82541104411588,0.975,0.8823529411764706,0.36037934987168563,0.9,14.03135040000052
75,0.0003376343247444856,0.5793888349966569,0.9607954545454546,0.43145816137916165,0.8671052631578947,0.8664671012658299,1.0,0.9397058823529412,0.3576986212479441,0.9,14.000239700002567
76,0.0003309085295319264,0.5965683352947235,0.9531818181818181,0.470187699167352,0.8552631578947368,0.8560760144494693,0.975,0.9279411764705883,0.35560760435305144,0.8986842105263158,14.045902100002422
77,0.0003241672016149815,0.6003499178452926,0.956590909090909,0.3776483633016285,0.8894736842105263,0.888782797525373,1.0,0.9602941176470589,0.3547842728464227,0.8960526315789473,13.992588400000386
78,0.00031741378447004763,0.6119445850632408,0.9540909090909091,0.41636890674892224,0.8842105263157894,0.8833585241453956,1.0,0.9558823529411765,0.3550060071443257,0.9,14.024453500001982
79,0.00031065172774871004,0.6513279060883955,0.9604545454545454,0.4631179000201978,0.8578947368421053,0.8600831243416485,1.0,0.9323529411764706,0.3585656426454845,0.8973684210526316,14.054139799998666
80,0.00030388448551565744,0.6253431727669456,0.9475,0.45595189097680544,0.8578947368421053,0.8589636244155937,0.975,0.9220588235294118,0.36295696151883977,0.8986842105263158,14.05769710000095
81,0.0002971155144843426,0.5798327608542009,0.9681818181818181,0.4962678209731453,0.8421052631578947,0.8415896804607563,1.0,0.9102941176470588,0.36438855591573216,0.8960526315789473,14.015733799998998
82,0.0002903482722512899,0.580481068871238,0.9651136363636363,0.48965430071479393,0.8526315789473684,0.8546376944501224,1.0,0.9235294117647059,0.3648423034893839,0.8973684210526316,14.037236699998175
83,0.0002835862155299524,0.5778973314978859,0.9621590909090909,0.44364101949490997,0.8631578947368421,0.8618397055874778,1.0,0.9279411764705883,0.3713278510068592,0.8960526315789473,14.031408200000442
84,0.00027683279838501855,0.6288558514551683,0.9492045454545455,0.4310713115491365,0.8842105263157894,0.8835546925138351,1.0,0.9529411764705882,0.37339043930957194,0.8947368421052632,14.024285300001793
85,0.00027009147046807365,0.6075292242657054,0.9584090909090909,0.4626086584831539,0.8578947368421053,0.8576014459393682,1.0,0.9279411764705883,0.37468293873887315,0.8921052631578947,14.070330999998987
86,0.0002633656752555145,0.6245062203840775,0.9525,0.43541283889820703,0.8697368421052631,0.8715138087818911,1.0,0.9352941176470588,0.37314292568909496,0.8921052631578947,14.022141000001284
87,0.00025665884828961807,0.5723446767980402,0.9656818181818182,0.45371463110572413,0.8552631578947368,0.8546907447806417,1.0,0.9161764705882353,0.37514953707393844,0.8907894736842106,14.024534999996831
88,0.00024997441542366436,0.6220730395750566,0.9518181818181818,0.4344649465460526,0.8618421052631579,0.8623509850908881,1.0,0.9397058823529412,0.37776336669921873,0.8894736842105263,14.028832200001489
89,0.00024331579107200632,0.6174771577661687,0.9544318181818182,0.4096988872477883,0.8723684210526316,0.8726444977244405,1.0,0.9455882352941176,0.3772577386153372,0.8907894736842106,14.067522400000598
90,0.0002366863764659847,0.5910487586801703,0.9601136363636363,0.41304024206964596,0.8881578947368421,0.8884145376736041,1.0,0.9529411764705882,0.37661534422322324,0.8921052631578947,14.03457139999955
91,0.0002300895579165759,0.5907535840164532,0.9614772727272727,0.4606262991302892,0.8526315789473684,0.8530867481216774,1.0,0.9235294117647059,0.3759963195574911,0.8934210526315789,14.027301200003421
92,0.0002235287050846607,0.556192867972634,0.9665909090909091,0.4373486980011589,0.8552631578947368,0.8559291409486626,1.0,0.9308823529411765,0.37899258199491,0.8907894736842106,14.008492999997543
93,0.00021700716925979942,0.5827561630985953,0.9713636363636363,0.44867136039231953,0.8618421052631579,0.8625196265318518,1.0,0.9382352941176471,0.3804705980576967,0.8907894736842106,14.034210600002552
94,0.00021052828164838913,0.567785323749889,0.9644318181818182,0.39844721806676764,0.881578947368421,0.8818974112222303,1.0,0.9455882352941176,0.380433494166324,0.8855263157894737,14.016863899996679
95,0.00020409535167208103,0.6249483544176275,0.9536363636363636,0.43395208998730306,0.8631578947368421,0.8648878833206324,1.0,0.9264705882352942,0.38626484055268134,0.8828947368421053,14.07245800000237
96,0.00019771166527732506,0.6167026628147472,0.9605681818181818,0.4621961086988449,0.8578947368421053,0.8603680618483279,1.0,0.9147058823529411,0.388183352508043,0.8842105263157894,14.006391999999323
97,0.00019138048325690465,0.6191843061013655,0.9573863636363636,0.39861980253144313,0.8894736842105263,0.889570756189976,1.0,0.9558823529411765,0.38798643444713793,0.8842105263157894,14.040130499997758
98,0.00018510503958432174,0.6116870717568831,0.9547727272727272,0.4503276624177632,0.8657894736842106,0.8667201063651309,1.0,0.9397058823529412,0.38759693315154625,0.881578947368421,14.050588300000527
99,0.0001788885397618797,0.583193262273615,0.9734090909090909,0.42032446547558433,0.868421052631579,0.8681268032859375,1.0,0.9411764705882353,0.38792604207992554,0.8828947368421053,14.030778699998336
100,0.00017273415918330973,0.6174901810559359,0.9560227272727273,0.42023500078602843,0.8802631578947369,0.8805993483465289,1.0,0.9588235294117647,0.3912906847502056,0.8855263157894737,13.986435599999822
101,0.00016664504151177735,0.6044105768203736,0.9640909090909091,0.44963796546584683,0.8763157894736842,0.8764844776444841,1.0,0.9514705882352941,0.39052702313975285,0.8842105263157894,14.017244800001208
102,0.00016062429707409598,0.6004717454043301,0.97,0.4680990931234862,0.8552631578947368,0.8576288166877573,1.0,0.9147058823529411,0.3951144566661433,0.8828947368421053,14.052936100000807
103,0.00015467500127196946,0.5904011672193353,0.9721590909090909,0.4591494902184135,0.8671052631578947,0.8682326149867133,1.0,0.9161764705882353,0.3982425896744979,0.8802631578947369,14.032686799997464
104,0.0001488001930110739,0.599199688651345,0.9692045454545455,0.42996055264221994,0.8697368421052631,0.8695893079595882,1.0,0.95,0.3993154434781325,0.881578947368421,14.075777999998536
105,0.00014300287314878202,0.5863820058649236,0.9678409090909091,0.4582914659851476,0.8578947368421053,0.8575762108502657,1.0,0.9367647058823529,0.40169910600310876,0.8763157894736842,14.058991400001105
106,0.00013728600296132235,0.5696716389872811,0.9677272727272728,0.42528991761960483,0.8697368421052631,0.8699024912435297,1.0,0.9514705882352941,0.40268241386664544,0.8736842105263158,14.051560700001573
107,0.00013165250263115694,0.5877355480194092,0.9594318181818182,0.4197521812037418,0.8736842105263158,0.873775166472026,1.0,0.9514705882352941,0.40209663698547765,0.8736842105263158,14.048961300002702
108,0.0001261052497553492,0.5663274936242537,0.9732954545454545,0.40503805091506556,0.8828947368421053,0.8836330891042318,1.0,0.9470588235294117,0.4023928990489558,0.8736842105263158,14.034995300000446
109,0.0001206470778756849,0.5852170803330161,0.9693181818181819,0.44089371593374954,0.868421052631579,0.8697758817348268,1.0,0.9455882352941176,0.402138960988898,0.8789473684210526,13.996580999999424
110,0.0001152807750312964,0.5513523890755393,0.9753409090909091,0.448797366179918,0.8618421052631579,0.8637408321789092,1.0,0.9235294117647059,0.40321912263569076,0.8763157894736842,14.009327799998573
111,0.00011000908233452982,0.6010608733784069,0.9663636363636363,0.4253660493775418,0.868421052631579,0.8686344023415392,1.0,0.95,0.40428796002739353,0.8789473684210526,14.03558559999874
112,0.00010483469257078224,0.5738881466605447,0.9803409090909091,0.4277742078429774,0.8710526315789474,0.870069812980318,1.0,0.9426470588235294,0.4041715110603132,0.8789473684210526,14.036006700000144
113,9.976024882302456e-05,0.591153453913602,0.977840909090909,0.4392855989305597,0.8697368421052631,0.8701819779399418,1.0,0.9279411764705883,0.4060494683290783,0.8776315789473684,14.008951199997682
114,9.478834312171236e-05,0.5786284164948897,0.9754545454545455,0.5069161656655763,0.8368421052631579,0.8356024277005989,1.0,0.9044117647058824,0.4086458698699349,0.875,14.02040919999854
115,8.992151512077429e-05,0.5880576591058211,0.9652272727272727,0.4237048509873842,0.8697368421052631,0.8701387089346726,1.0,0.95,0.41056719265486064,0.875,14.03501099999994
116,8.516225080035476e-05,0.5929401577602733,0.9735227272727273,0.4673520543073353,0.85,0.8516393760977508,1.0,0.9279411764705883,0.4113104572421626,0.875,14.055753299999196
117,8.051298119697266e-05,0.5879610287059437,0.9636363636363636,0.43553426657852373,0.8618421052631579,0.8616480852469444,1.0,0.9264705882352942,0.4137794089944739,0.8763157894736842,14.054971099998511
118,7.597608116174637e-05,0.6025946574861353,0.9610227272727273,0.44131260953451457,0.8631578947368421,0.864427820584513,1.0,0.9161764705882353,0.41585058914987666,0.875,14.03168530000039
119,7.155386814731662e-05,0.6140263233401558,0.9602272727272727,0.4205255611946708,0.8723684210526316,0.8721825666332403,1.0,0.9367647058823529,0.41639934370392245,0.875,14.02800180000122
120,6.724860102409081e-05,0.5990572213042866,0.9690909090909091,0.4342835285161671,0.8618421052631579,0.8620086026751329,1.0,0.9426470588235294,0.41553923017100286,0.875,14.064027000000351
121,6.306247892640888e-05,0.5660675302418795,0.9753409090909091,0.427063629815453,0.8842105263157894,0.8846509540840468,1.0,0.9602941176470589,0.41407816127726904,0.8763157894736842,14.038770499999373
122,5.899764012922409e-05,0.5600007955594496,0.9682954545454545,0.44312431028014737,0.8592105263157894,0.8595501282934771,1.0,0.9367647058823529,0.4142592590106161,0.875,14.04699029999756
123,5.5056160955870474e-05,0.5899883463165977,0.9713636363636363,0.4268830155071459,0.8671052631578947,0.8674927514171248,1.0,0.9514705882352941,0.4153835092720233,0.8736842105263158,14.051205100000516
124,5.1240054717474066e-05,0.5822220370986245,0.9701136363636363,0.4358518903192721,0.8592105263157894,0.8590971397873343,1.0,0.9455882352941176,0.41703892726647224,0.8763157894736842,14.03530640000099
125,4.755127068455278e-05,0.5910998634858565,0.9627272727272728,0.45013259053230287,0.868421052631579,0.8689784933548867,1.0,0.9558823529411765,0.4192611703747197,0.8723684210526316,14.033549499999936
126,4.399169309132677e-05,0.6019104480743408,0.96375,0.42356993007032495,0.8657894736842106,0.866375180302651,1.0,0.9455882352941176,0.42004233912417765,0.8710526315789474,14.023063000000548
127,4.0563140173249585e-05,0.5943818794597279,0.9729545454545454,0.44136762179826433,0.8592105263157894,0.8591679182540956,1.0,0.9426470588235294,0.4209891071445064,0.868421052631579,14.049033700001019
128,3.726736323825278e-05,0.5818418156016957,0.9657954545454546,0.4459454180378663,0.8618421052631579,0.862489105104846,1.0,0.9294117647058824,0.4223091527035362,0.8697368421052631,14.06803199999922
129,3.41060457721751e-05,0.6132696889747273,0.9655681818181818,0.4451925971006092,0.8644736842105263,0.8648035317176916,1.0,0.9382352941176471,0.4235329874252018,0.8723684210526316,14.03648599999724
130,3.1080802578837415e-05,0.5819509454206987,0.9634090909090909,0.4259488560651478,0.8671052631578947,0.868672482572953,1.0,0.9382352941176471,0.4241668704308962,0.8697368421052631,14.027156200001627
131,2.8193178955198895e-05,0.574738916050304,0.9803409090909091,0.43933185793851554,0.8710526315789474,0.8718119345486564,1.0,0.9382352941176471,0.42377070392432964,0.8736842105263158,14.022133700000268
132,2.544464990201774e-05,0.5653039914911444,0.9730681818181818,0.4515364806903036,0.8552631578947368,0.855830256124573,1.0,0.9338235294117647,0.424353268115144,0.8736842105263158,14.040345800000068
133,2.283661937042025e-05,0.587408170483329,0.9688636363636364,0.4745312340949711,0.8552631578947368,0.8570845343179438,1.0,0.9220588235294118,0.42629282051011136,0.8736842105263158,14.004099400000996
134,2.0370419544760518e-05,0.5664268684387207,0.9801136363636364,0.4477268416630594,0.8631578947368421,0.8644094871670681,1.0,0.9382352941176471,0.4291019635765176,0.8697368421052631,14.015545799997199
135,1.804731016213988e-05,0.5867661367763173,0.9695454545454546,0.4377291224504772,0.8710526315789474,0.8716634665325046,1.0,0.9426470588235294,0.43066205429403404,0.8697368421052631,14.020586900001945
136,1.5868477868931964e-05,0.5763037493012169,0.9642045454545455,0.46104615926742554,0.8565789473684211,0.8568294518316135,1.0,0.9279411764705883,0.4320808813760155,0.868421052631579,14.023800799997844
137,1.3835035614642541e-05,0.5952679753303528,0.9690909090909091,0.47383599547963395,0.8513157894736842,0.8528392899236668,1.0,0.9117647058823529,0.43425822979525514,0.8697368421052631,14.051966099999845
138,1.1948022083414199e-05,0.5587404790791598,0.9832954545454545,0.45300204581335973,0.8592105263157894,0.8605353977207321,1.0,0.9220588235294118,0.4358208905709417,0.8671052631578947,14.038706600000296
139,1.0208401163465185e-05,0.5797308381037278,0.9736363636363636,0.4464601212426236,0.8644736842105263,0.8645413064935354,1.0,0.9323529411764706,0.43758047019180496,0.8671052631578947,14.049143399999593
140,8.617061454734755e-06,0.5962815455956892,0.9618181818181818,0.46173360755569054,0.8578947368421053,0.8585795865391812,1.0,0.9264705882352942,0.43821836804088793,0.868421052631579,14.018401700002869
141,7.1748158149852224e-06,0.6062787953290072,0.9659090909090909,0.44902102790380777,0.868421052631579,0.8690775139842893,1.0,0.9426470588235294,0.440089496656468,0.868421052631579,14.02539859999888
142,5.882400944593751e-06,0.593370678099719,0.9671590909090909,0.41938990511392293,0.8736842105263158,0.8742833743680191,1.0,0.9544117647058824,0.44074417964408275,0.8671052631578947,14.006194699999469
143,4.740477010244959e-06,0.5821095954288136,0.9647727272727272,0.43660800425629864,0.8697368421052631,0.8699622166448432,1.0,0.9441176470588235,0.44042639465708483,0.8671052631578947,14.066621800000576
144,3.7496273077172435e-06,0.5618736056848006,0.980909090909091,0.44636929254782826,0.8697368421052631,0.8700741604766643,1.0,0.9485294117647058,0.44058878029647625,0.868421052631579,14.026457300002221
145,2.9103579639347222e-06,0.5737147571823814,0.9701136363636363,0.44450707717945703,0.8644736842105263,0.8649887952928397,1.0,0.9323529411764706,0.44138352274894715,0.868421052631579,14.017750400002114
146,2.223097678437247e-06,0.5760692416537891,0.9765909090909091,0.44237542434742577,0.8710526315789474,0.8713701709015045,1.0,0.9411764705882353,0.44199194704231465,0.868421052631579,14.022015000002284
147,1.6881975044002091e-06,0.5580719687721946,0.9735227272727273,0.44433995265709725,0.8671052631578947,0.8677163225208615,1.0,0.9441176470588235,0.44259097450657897,0.868421052631579,14.023694700001215
148,1.3059306693162125e-06,0.5900798227570274,0.9728409090909091,0.4597057940144288,0.8618421052631579,0.8626040876888335,1.0,0.9279411764705883,0.4429868196186266,0.868421052631579,14.02598659999785
149,1.0764924354303636e-06,0.5908262027393688,0.9721590909090909,0.4480254333270223,0.868421052631579,0.8687836053614454,1.0,0.9455882352941176,0.443415912672093,0.8657894736842106,14.001116399998864
150,1e-06,0.5810813598199324,0.9723863636363637,0.44044727526212996,0.8657894736842106,0.8663320795676583,1.0,0.9411764705882353,0.4437771442689394,0.8657894736842106,14.028288800000155
