epoch,lr,train_loss,train_accuracy,val_loss,val_accuracy,val_macro_f1,val_trial_accuracy,val_k3,ema_loss,ema_accuracy,seconds
1,5.9999999999999995e-05,2.596318599527532,0.24704545454545454,2.2273801075784783,0.33289473684210524,0.30661290645841655,0.4,0.3573529411764706,1.6115234375,0.2,5.931478200000129
2,0.00011999999999999999,2.2542145286906847,0.2771590909090909,1.8340431564732602,0.43026315789473685,0.4298964006830902,0.65,0.5294117647058824,1.614441560444079,0.2,5.76124990000244
3,0.00018,2.0471694798903033,0.34238636363636366,2.171070846758391,0.48026315789473684,0.4522732966961465,0.675,0.5529411764705883,1.616420384457237,0.2,5.769394099996134
4,0.00023999999999999998,1.9171765743602407,0.3946590909090909,2.1420900244461865,0.4921052631578947,0.43048392369050836,0.575,0.5455882352941176,1.619921875,0.2,5.773949000002176
5,0.0003,1.815894177610224,0.4321590909090909,2.9693750895951925,0.5394736842105263,0.49194039603246764,0.6,0.5470588235294118,1.6203690378289475,0.2,5.795540399994934
6,0.00035999999999999997,1.7402039926702326,0.4752272727272727,1.7697802016609594,0.6289473684210526,0.6132106691123085,0.75,0.711764705882353,1.622265625,0.2,5.75793039999553
7,0.00042,1.5262046540867198,0.5475,1.6345006817265562,0.6789473684210526,0.6685738639672414,0.925,0.7485294117647059,1.6247661389802632,0.2,5.768529399996623
8,0.0004799999999999999,1.4578911529887806,0.5885227272727273,1.2272860250974957,0.7039473684210527,0.7004960296970898,0.95,0.7985294117647059,1.6259765625,0.2,5.7670332999987295
9,0.00054,1.3656446175141768,0.6310227272727272,0.7858449848074662,0.7473684210526316,0.7442511870302339,0.95,0.8294117647058824,1.6271754214638159,0.2,5.769585600006394
10,0.0005999999999999998,1.2825123045661233,0.6773863636363636,1.6398797411667674,0.7671052631578947,0.7631633223138602,0.95,0.8647058823529412,1.629490902549342,0.2,5.780758399996557
11,0.0006,1.2153911499543624,0.6954545454545454,1.0024326550333122,0.781578947368421,0.7806684272187481,0.95,0.8705882352941177,1.630885074013158,0.2,5.772608400002355
12,0.0005999235075645696,1.1698592831871726,0.7080681818181818,0.8235505819320679,0.7960526315789473,0.7954254932481215,0.975,0.888235294117647,1.6302734375,0.2,5.777092699994682
13,0.0005996940693306837,1.1334050967476585,0.7322727272727273,0.8576929029665495,0.7986842105263158,0.7930222378820505,0.975,0.8647058823529412,1.6288895456414474,0.2,5.850708499994653
14,0.0005993118024955998,1.1274365312402899,0.7326136363636364,0.6281689085458454,0.8236842105263158,0.8227730968181758,0.975,0.8970588235294118,1.6261744449013158,0.2,5.763477500004228
15,0.0005987769023215627,1.104515435478904,0.7410227272727272,1.8909806377009342,0.8026315789473685,0.7990335923756311,0.975,0.875,1.6250655324835526,0.2,5.797534699995595
16,0.0005980896420360653,1.0546359649571506,0.762159090909091,0.629808003024051,0.7894736842105263,0.7868430060802396,1.0,0.8573529411764705,1.6232653128473382,0.2,5.786916700002621
17,0.0005972503726922827,1.01196147441864,0.77375,0.5685930747734873,0.8276315789473684,0.8247132199772352,1.0,0.9117647058823529,1.6211091694078947,0.2,5.791321600001538
18,0.0005962595229897549,1.056135867725719,0.7613636363636364,0.58000227652098,0.8394736842105263,0.8378796500482245,0.975,0.875,1.6201159025493421,0.2,5.771777900001325
19,0.0005951175990554061,1.0437435618313875,0.7685227272727273,0.6513885541966087,0.8447368421052631,0.8426465530097913,1.0,0.9102941176470588,1.61953125,0.2,5.788054199998442
20,0.0005938251841850148,1.0148935448039662,0.7714772727272727,0.6566067786593186,0.8368421052631579,0.8367005029100423,1.0,0.8838235294117647,1.6189620168585526,0.2,5.762403499997163
21,0.0005923829385452652,0.979345167983662,0.7814772727272727,0.535108386842828,0.8723684210526316,0.8719635965467593,1.0,0.9338235294117647,1.6185546875,0.2,5.8087306000015815
22,0.0005907915988365347,0.9722701107371937,0.7911363636363636,0.46797819263056706,0.8565789473684211,0.8548964405942817,1.0,0.9205882352941176,1.6180317150919061,0.2,5.771466899997904
23,0.0005890519779165858,0.9464680797403509,0.8048863636363637,0.42463756235022293,0.8802631578947369,0.8800584546587629,1.0,0.9470588235294117,1.6177734375,0.2,5.786115300004894
24,0.0005871649643853574,0.9510701413588091,0.79625,0.48169095704430026,0.8526315789473684,0.8520591999809689,1.0,0.925,1.6178775172484547,0.2,5.783329599995341
25,0.000585131522131068,0.9446267795562744,0.8047727272727273,0.4531144129602533,0.8789473684210526,0.8774887430078631,1.0,0.9294117647058824,1.6179057874177631,0.2,5.757646500002011
26,0.0005829526898378601,0.9504472051967274,0.7960227272727273,0.4284019953326175,0.8855263157894737,0.8852445159231417,1.0,0.9426470588235294,1.618359375,0.2,5.801250699994853
27,0.0005806295804552395,0.9302139277891679,0.8001136363636364,0.43469932016573454,0.881578947368421,0.8812074459864044,1.0,0.9352941176470588,1.618944027549342,0.2,5.798599800000375
28,0.0005781633806295796,0.9085364619168368,0.8032954545454546,0.44130806797429134,0.8763157894736842,0.8755473170812976,1.0,0.9397058823529412,1.6193359375,0.2,5.796750200002862
29,0.0005755553500979822,0.9379638756405223,0.8026136363636364,0.45640581469786795,0.875,0.8740353510991451,1.0,0.9382352941176471,1.619140625,0.2,5.761436799999501
30,0.0005728068210448012,0.9243420124053955,0.8076136363636364,0.42330017905486256,0.8960526315789473,0.8955609553347795,1.0,0.9514705882352941,1.6196803055311504,0.2,5.777772300003562
31,0.0005699191974211625,0.8748939462141557,0.8289772727272727,0.4015171192194286,0.8802631578947369,0.8799698826801563,1.0,0.9455882352941176,1.6195967824835527,0.2,5.778624099999433
32,0.0005668939542278249,0.8780933065847917,0.8252272727272727,0.40936787002965025,0.8894736842105263,0.8890579392002176,1.0,0.9529411764705882,1.619519685444079,0.2,5.802734700002475
33,0.0005637326367617472,0.8903079806674611,0.819659090909091,0.39971389331315693,0.8907894736842106,0.8900546487407844,1.0,0.9441176470588235,1.6200105378502294,0.2,5.790046900001471
34,0.0005604368598267504,0.8151203328912908,0.8498863636363636,0.35692607760429385,0.9039473684210526,0.9042650165804131,1.0,0.9573529411764706,1.6199912610806917,0.2,5.793541899998672
35,0.0005570083069086733,0.8285441320592707,0.85,0.3506772057006234,0.906578947368421,0.9061540087990823,1.0,0.9602941176470589,1.6194451545414172,0.2,5.766441699997813
36,0.0005534487293154471,0.8405751869895242,0.8331818181818181,0.4042111308951127,0.8855263157894737,0.8843236961941662,1.0,0.95,1.6194772820723684,0.2,5.813910000004398
37,0.0005497599452825259,0.8475615778836337,0.8404545454545455,0.38099293771543,0.9026315789473685,0.901910944892645,1.0,0.9632352941176471,1.6192498445510863,0.2,5.786400999997568
38,0.0005459438390441295,0.8416792145642368,0.8402272727272727,0.4131944540299867,0.8960526315789473,0.8953451948901806,1.0,0.9426470588235294,1.6182308824438798,0.2,5.8176365999970585
39,0.0005420023598707758,0.8314452457427979,0.8406818181818182,0.44887867852261193,0.875,0.8737796887306389,1.0,0.9382352941176471,1.6167441907681916,0.2,5.7535789999965345
40,0.0005379375210735911,0.8234116853367198,0.8398863636363636,0.35548391906838667,0.9105263157894737,0.9098303231922242,1.0,0.9602941176470589,1.6152086722223382,0.2,5.772980800000369
41,0.0005337513989759092,0.8055488543076949,0.84625,0.3986804152789869,0.8842105263157894,0.8834206696106751,1.0,0.9382352941176471,1.6123072599109851,0.2,5.809565299998212
42,0.0005294461318526833,0.852748524275693,0.83125,0.4076513359421178,0.906578947368421,0.9059982893466303,1.0,0.9602941176470589,1.6088545924738833,0.2,5.7854282000043895
43,0.0005250239188382536,0.7596955013275146,0.8765909090909091,0.40719430227028697,0.8986842105263158,0.8980788904838997,1.0,0.9455882352941176,1.6027459420655903,0.2,5.780547200003639
44,0.0005204870188030272,0.8041242727366361,0.8521590909090909,0.37250379198475886,0.9092105263157895,0.9083396302161034,1.0,0.9588235294117647,1.598025029583981,0.2,5.780951699998695
45,0.0005158377491996452,0.7627276004444469,0.8711363636363636,0.38569595437300835,0.9039473684210526,0.9038818522480291,1.0,0.9602941176470589,1.5928659501828646,0.2,5.787456099998963
46,0.0005110784848792257,0.7810908937454224,0.8631818181818182,0.4253703562836898,0.9052631578947369,0.904664075901746,1.0,0.9558823529411765,1.5871466391964963,0.2,5.797378199997183
47,0.0005062116568782877,0.7802466418526389,0.8617045454545454,0.39146057712404353,0.9078947368421053,0.9072491567013072,1.0,0.9485294117647058,1.5759296611735696,0.20394736842105263,5.823372899998503
48,0.0005012397511769754,0.7594943278486078,0.8756818181818182,0.3773283506694593,0.9052631578947369,0.9053104039046855,1.0,0.9573529411764706,1.556124074208109,0.21052631578947367,5.78750189999846
49,0.0004961653074292177,0.7474349795688282,0.8736363636363637,0.3877520542395742,0.8828947368421053,0.8827445537885061,1.0,0.9441176470588235,1.5239938836348683,0.22631578947368422,5.774351899999601
50,0.0004909909176654702,0.7720720501379533,0.8705681818181819,0.4092441003573568,0.9052631578947369,0.9050358620876778,1.0,0.9602941176470589,1.4731050190172696,0.25394736842105264,5.797653599998739
51,0.00048571922496870357,0.7453010110421614,0.8785227272727273,0.38631456964894345,0.8973684210526316,0.8970696746414732,1.0,0.95,1.3943738429169905,0.3013157894736842,5.780707299993082
52,0.00048035292212431514,0.7591471600532532,0.8726136363636363,0.3760949084633275,0.906578947368421,0.906435542407999,1.0,0.9588235294117647,1.2886995020665621,0.38552631578947366,5.780256999998528
53,0.0004748947502446508,0.7316831577907909,0.8851136363636364,0.3968472355290463,0.9,0.8991299380990526,1.0,0.9588235294117647,1.1637325892322943,0.4986842105263158,5.771424900005513
54,0.00046934749736884306,0.7703355581110174,0.8751136363636364,0.4261605912133267,0.8934210526315789,0.8933754206949798,1.0,0.9411764705882353,1.0364261024876644,0.5960526315789474,5.792493200002355
55,0.0004637139970386777,0.7428965286775069,0.8815909090909091,0.4120202986817611,0.8828947368421053,0.8818873349839474,1.0,0.9426470588235294,0.9157332561518017,0.6710526315789473,5.780223800000385
56,0.000457997126851218,0.7213536802205173,0.8925,0.36375460028648376,0.9078947368421053,0.9078273096153057,1.0,0.95,0.8171341751751147,0.7171052631578947,5.789898299997731
57,0.00045219980698892607,0.7526497836546464,0.8765909090909091,0.4113019391110069,0.8921052631578947,0.8912802791467792,1.0,0.9558823529411765,0.7325201743527463,0.756578947368421,5.794297499996901
58,0.0004463249987280305,0.7484550179134716,0.8861363636363636,0.44919320093958004,0.8894736842105263,0.8888100518326825,0.975,0.95,0.6631937133638482,0.7907894736842105,5.784549100004369
59,0.000440375702925904,0.6934421607581052,0.9036363636363637,0.38259624681974713,0.9078947368421053,0.9073186679867291,1.0,0.9514705882352941,0.6053593676341208,0.8157894736842105,5.7986997999978485
60,0.0004343549584882226,0.7055892313610423,0.9073863636363636,0.3519163473656303,0.9105263157894737,0.9104712771680321,0.975,0.9529411764705882,0.5561080942028447,0.8368421052631579,5.806378499997663
61,0.00042826584081669025,0.7506225604360753,0.8853409090909091,0.38217084219581204,0.8934210526315789,0.8914956295936303,1.0,0.9411764705882353,0.5212026498819652,0.8565789473684211,5.779826999998477
62,0.00042211146023812037,0.7074159876866775,0.8988636363636363,0.38421941085865624,0.9,0.9000123754065456,1.0,0.95,0.49239610402207623,0.8644736842105263,5.79647770000156
63,0.0004158949604156783,0.742481520392678,0.8814772727272727,0.39995468729420713,0.8842105263157894,0.8835609856306317,1.0,0.9308823529411765,0.467989992154272,0.8828947368421053,5.797091899999941
64,0.0004096195167430953,0.7102573977817188,0.9052272727272728,0.39999552180892545,0.9,0.90007653208717,1.0,0.961764705882353,0.4457391839278372,0.8881578947368421,5.810321099997964
65,0.0004032883347226749,0.6502124508944425,0.9209090909090909,0.39101506220666987,0.8855263157894737,0.8851189091551624,1.0,0.9382352941176471,0.42186825495017205,0.8986842105263158,5.787191499999608
66,0.0003969046483279189,0.6665065634250641,0.9231818181818182,0.3636046579009608,0.9013157894736842,0.9003778198899832,1.0,0.9470588235294117,0.40585435472036663,0.9,5.787571699998807
67,0.0003904717183516109,0.6491461831873113,0.9129545454545455,0.4227836266944283,0.8736842105263158,0.8719598494378354,1.0,0.9308823529411765,0.39401510106889825,0.9039473684210526,5.767278100000112
68,0.0003839928307402005,0.7162329157915982,0.90375,0.38867814101670917,0.8894736842105263,0.8885275733690833,1.0,0.9514705882352941,0.38829056526485245,0.9026315789473685,5.815252899999905
69,0.00037747129491533916,0.6881278605894608,0.9104545454545454,0.4186334716646295,0.8907894736842106,0.8896907078880758,1.0,0.9602941176470589,0.38295135435305144,0.9052631578947369,5.7928318999984185
70,0.0003709104420834241,0.6998684501647949,0.9147727272727273,0.3828687975281163,0.9144736842105263,0.9148253997964939,1.0,0.9647058823529412,0.37848398246263204,0.9157894736842105,5.782048900000518
71,0.00036431362353401533,0.6879304774241014,0.9132954545454546,0.38452373303865134,0.8973684210526316,0.8967711714211735,1.0,0.9632352941176471,0.37422172207581367,0.9157894736842105,5.832585800002562
72,0.0003576842089279937,0.6884832642295143,0.9145454545454546,0.37621909693667765,0.9118421052631579,0.9115344318341796,1.0,0.961764705882353,0.36979378116758244,0.9171052631578948,5.765387899999041
73,0.0003510255845763356,0.6880219585245306,0.915340909090909,0.36887439865815014,0.9105263157894737,0.9104083725853422,1.0,0.9573529411764706,0.3671232527808139,0.9197368421052632,5.790652700001374
74,0.0003443411517103819,0.7023376755280928,0.9060227272727273,0.37426075245204726,0.9105263157894737,0.9101000586817826,1.0,0.9676470588235294,0.3636057806642432,0.9210526315789473,5.828176700000768
75,0.0003376343247444856,0.7005226646770131,0.9151136363636364,0.3888706401774758,0.8973684210526316,0.896868556744734,0.975,0.9573529411764706,0.3625314812911184,0.9197368421052632,5.805503299998236
76,0.0003309085295319264,0.6934256213361567,0.9147727272727273,0.3767629519889229,0.9,0.8994302649184238,1.0,0.9661764705882353,0.36117096010007355,0.9197368421052632,5.762242600001628
77,0.0003241672016149815,0.6834852620688352,0.915,0.36913805572610153,0.9,0.9000190995017647,1.0,0.961764705882353,0.35918787843302674,0.9197368421052632,5.801069699999061
78,0.00031741378447004763,0.7028501579978249,0.9209090909090909,0.37182432569955526,0.9157894736842105,0.9158904945891247,1.0,0.9602941176470589,0.35882464051246643,0.9223684210526316,5.788235200001509
79,0.00031065172774871004,0.6647596312652935,0.9256818181818182,0.33331885086862667,0.9131578947368421,0.9133323512910048,1.0,0.961764705882353,0.35640652273830614,0.9223684210526316,5.785112199999276
80,0.00030388448551565744,0.6568609291856939,0.9328409090909091,0.36962436688573735,0.9,0.8993596402071132,1.0,0.9514705882352941,0.35474179010642204,0.9197368421052632,5.802695299993502
81,0.0002971155144843426,0.6685028852115978,0.9260227272727273,0.3627093669615294,0.9118421052631579,0.9119545212399871,1.0,0.9632352941176471,0.3527220067225004,0.9197368421052632,5.816399299998011
82,0.0002903482722512899,0.6432223668965427,0.9270454545454545,0.37951643968883314,0.9013157894736842,0.9005753100529471,1.0,0.95,0.351864061543816,0.9210526315789473,5.783895599997777
83,0.0002835862155299524,0.6357221438667991,0.94375,0.3427460523028123,0.9039473684210526,0.9037086238634856,1.0,0.9602941176470589,0.35002626180648805,0.9197368421052632,5.813068600000406
84,0.00027683279838501855,0.6500260979479009,0.9256818181818182,0.36984983839486774,0.9236842105263158,0.9236108753789087,1.0,0.9720588235294118,0.3479460073144812,0.9171052631578948,5.782510600001842
85,0.00027009147046807365,0.7118438058549708,0.9147727272727273,0.42492226111261466,0.8947368421052632,0.8945997563974544,1.0,0.9544117647058824,0.35136943522252534,0.9184210526315789,5.7869934999980615
86,0.0002633656752555145,0.6579707397114147,0.9375,0.374970165051912,0.8973684210526316,0.8971708573951404,1.0,0.961764705882353,0.35116079324170163,0.9184210526315789,5.814396200003102
87,0.00025665884828961807,0.65531071879647,0.9331818181818182,0.38925733252575523,0.9026315789473685,0.9025606686091521,1.0,0.9558823529411765,0.3513139429845308,0.9144736842105263,5.796172100002877
88,0.00024997441542366436,0.6964147186279297,0.9181818181818182,0.4009674878496873,0.9,0.9000520331614601,1.0,0.9558823529411765,0.3539637521693581,0.9197368421052632,5.775947600006475
89,0.00024331579107200632,0.6286222600936889,0.9347727272727273,0.35254749436127514,0.9092105263157895,0.9091331636772638,1.0,0.9573529411764706,0.35159960263653806,0.9197368421052632,5.792545600001176
90,0.0002366863764659847,0.6684776517477903,0.9310227272727273,0.3839606021579943,0.9078947368421053,0.907567426336939,1.0,0.961764705882353,0.35136028151763116,0.9184210526315789,5.8493656999999075
91,0.0002300895579165759,0.6485418408567255,0.9338636363636363,0.3812466266908144,0.9157894736842105,0.9157677300343717,1.0,0.961764705882353,0.35041800956977043,0.9197368421052632,5.784397399998852
92,0.0002235287050846607,0.6458518728342924,0.9359090909090909,0.3583276042812749,0.9144736842105263,0.9147269451892767,1.0,0.9647058823529412,0.3497858957240456,0.9197368421052632,5.797188600001391
93,0.00021700716925979942,0.6042239425399086,0.9513636363636364,0.3553368025704434,0.9026315789473685,0.9019765217651345,1.0,0.961764705882353,0.34824628390763934,0.9236842105263158,5.810308400003123
94,0.00021052828164838913,0.6463286631757563,0.9375,0.3657607232269488,0.9131578947368421,0.9129907619076105,1.0,0.961764705882353,0.3494890708672373,0.9210526315789473,5.776457599997229
95,0.00020409535167208103,0.6866188790581443,0.9156818181818182,0.39583708236092013,0.9157894736842105,0.9154071754728303,1.0,0.9544117647058824,0.35078044596471286,0.9223684210526316,5.782867599999008
96,0.00019771166527732506,0.6594020290808245,0.9280681818181818,0.3471233976514716,0.9118421052631579,0.9118160790717562,1.0,0.961764705882353,0.35120327535428497,0.9236842105263158,5.775150299996312
97,0.00019138048325690465,0.6852159081805836,0.9230681818181818,0.40558600080640694,0.9039473684210526,0.903870411697917,1.0,0.9588235294117647,0.35253175340200726,0.9210526315789473,5.7787775000033434
98,0.00018510503958432174,0.5994012815302069,0.9486363636363636,0.3379714150177805,0.906578947368421,0.9058891799741087,1.0,0.9573529411764706,0.35199649271212125,0.9197368421052632,5.781362999994599
99,0.0001788885397618797,0.671141732822765,0.9294318181818182,0.34236253343130413,0.9131578947368421,0.9132316176837865,1.0,0.9632352941176471,0.35185747648540294,0.9197368421052632,5.791482400003588
100,0.00017273415918330973,0.6519734501838684,0.9418181818181818,0.36089104288502744,0.8921052631578947,0.8904860550634524,1.0,0.9602941176470589,0.35134012291305944,0.9184210526315789,5.810948300000746
101,0.00016664504151177735,0.6716418822245165,0.93,0.39994466743971174,0.8986842105263158,0.8984664322003594,1.0,0.9588235294117647,0.35240847938939146,0.9171052631578948,5.793636999995215
102,0.00016062429707409598,0.6435487804629586,0.9327272727272727,0.3375969337789636,0.9171052631578948,0.9167588658401101,1.0,0.9661764705882353,0.3516524474871786,0.9157894736842105,5.791942600000766
103,0.00015467500127196946,0.6607016099583018,0.93625,0.44799461427487824,0.8789473684210526,0.8788757825701229,1.0,0.9382352941176471,0.351010935557516,0.9157894736842105,5.772870299995702
104,0.0001488001930110739,0.5989075634696267,0.9532954545454545,0.3380290389060974,0.906578947368421,0.9064857954992716,1.0,0.9573529411764706,0.34943365893865885,0.9131578947368421,5.777118899997731
105,0.00014300287314878202,0.6314922992749648,0.9382954545454546,0.41680562966748286,0.875,0.874902597199061,1.0,0.9397058823529412,0.35067475971422696,0.9157894736842105,5.80089240000234
106,0.00013728600296132235,0.6108539323373274,0.9518181818181818,0.37712097262081345,0.8986842105263158,0.8985580450239914,1.0,0.9514705882352941,0.35118151181622553,0.9144736842105263,5.777845299999171
107,0.00013165250263115694,0.6528798593174328,0.9454545454545454,0.420625385798906,0.9,0.9000170678167139,1.0,0.9573529411764706,0.35166641975703994,0.9131578947368421,5.778327899999567
108,0.0001261052497553492,0.627120013887232,0.9445454545454546,0.3992397907533144,0.9039473684210526,0.9036904932053886,1.0,0.9588235294117647,0.35328280737525536,0.9118421052631579,5.857051000006322
109,0.0001206470778756849,0.6114752175591208,0.9528409090909091,0.36897775844523784,0.9,0.8994818520779251,1.0,0.95,0.3535667817843588,0.9105263157894737,5.761473400001705
110,0.0001152807750312964,0.6320949456908486,0.9397727272727273,0.3661373747022528,0.9052631578947369,0.9048962968464572,1.0,0.961764705882353,0.3550390943100578,0.9092105263157895,5.788803299998108
111,0.00011000908233452982,0.6511254991184582,0.9271590909090909,0.3965484619140625,0.9052631578947369,0.9052086685154135,1.0,0.9632352941176471,0.35597919570772274,0.9144736842105263,5.799312800001644
112,0.00010483469257078224,0.633892955346541,0.9435227272727272,0.37416076754268845,0.9078947368421053,0.907906539145668,1.0,0.9661764705882353,0.355790870126925,0.9118421052631579,5.8072595999983605
113,9.976024882302456e-05,0.6274188012426549,0.95125,0.36904007666989375,0.9052631578947369,0.9051300961359315,1.0,0.9558823529411765,0.3556165183845319,0.9131578947368421,5.774855399999069
114,9.478834312171236e-05,0.6493745722553946,0.9475,0.38663731656576455,0.9078947368421053,0.9078306709501718,1.0,0.9661764705882353,0.3560669738995402,0.9078947368421053,5.793982999995933
115,8.992151512077429e-05,0.5914670851013877,0.9527272727272728,0.32611180418416075,0.9118421052631579,0.9117202446942894,1.0,0.9661764705882353,0.35518156258683453,0.9052631578947369,5.7762115000005
116,8.516225080035476e-05,0.6309441408244046,0.9484090909090909,0.35960492523092974,0.9092105263157895,0.9091471704269463,1.0,0.9602941176470589,0.3552817099972775,0.9092105263157895,5.786130799999228
117,8.051298119697266e-05,0.6527689925107089,0.9485227272727272,0.3750771180579537,0.9039473684210526,0.9036391144653809,1.0,0.9602941176470589,0.3550629471477709,0.9105263157894737,5.774773000004643
118,7.597608116174637e-05,0.6393899504704909,0.9478409090909091,0.34003761630309254,0.9131578947368421,0.9127716892686492,1.0,0.9588235294117647,0.35600401257213793,0.9105263157894737,5.765124500001548
119,7.155386814731662e-05,0.6069551478732716,0.9552272727272727,0.3639176208721964,0.8921052631578947,0.8919492443871665,1.0,0.9588235294117647,0.35466806449388205,0.9105263157894737,5.770369800004119
120,6.724860102409081e-05,0.6308104478229176,0.9521590909090909,0.39258069584244176,0.9013157894736842,0.901002114694822,1.0,0.961764705882353,0.3542022705078125,0.9118421052631579,5.783543400000781
121,6.306247892640888e-05,0.6232942843437195,0.9448863636363637,0.3579838799802881,0.9144736842105263,0.9138631482937877,1.0,0.9647058823529412,0.3541287064552307,0.9144736842105263,5.884607899999537
122,5.899764012922409e-05,0.6781297205794942,0.9327272727272727,0.3404167984661303,0.9131578947368421,0.9127929795484823,1.0,0.9632352941176471,0.35592418407139026,0.9144736842105263,5.830653499993787
123,5.5056160955870474e-05,0.5893113695491444,0.9620454545454545,0.3349790064912093,0.9118421052631579,0.9115123264213105,1.0,0.9632352941176471,0.35381437665537785,0.9144736842105263,5.776779899999383
124,5.1240054717474066e-05,0.6238048227266831,0.9467045454545454,0.3415536980879934,0.9184210526315789,0.9182995693185088,1.0,0.9705882352941176,0.35344270342274714,0.9131578947368421,5.760191300003498
125,4.755127068455278e-05,0.6159863035245375,0.9477272727272728,0.3581624881217354,0.9131578947368421,0.9132343593649839,1.0,0.961764705882353,0.35205278961282027,0.9144736842105263,5.790127000000211
126,4.399169309132677e-05,0.6260734873468226,0.9579545454545455,0.3726350489415621,0.9171052631578948,0.9171487241877696,1.0,0.9647058823529412,0.3516736482319079,0.9131578947368421,5.781638499996916
127,4.0563140173249585e-05,0.6410223623839292,0.9429545454545455,0.3436194162619741,0.9144736842105263,0.9144842832416067,1.0,0.9632352941176471,0.3518996386151565,0.9118421052631579,5.795032299996819
128,3.726736323825278e-05,0.6700417505611073,0.9235227272727272,0.3741897579870726,0.906578947368421,0.9065163905931513,1.0,0.961764705882353,0.3529029447781412,0.9118421052631579,5.78252490000159
129,3.41060457721751e-05,0.5874377142299305,0.9676136363636364,0.3195234593592192,0.9105263157894737,0.910129962012123,1.0,0.9647058823529412,0.3520667637649335,0.9092105263157895,5.793628499995975
130,3.1080802578837415e-05,0.6129773100939664,0.955,0.3703107338202627,0.9105263157894737,0.9102444326703383,1.0,0.9647058823529412,0.3525640396695388,0.9092105263157895,5.79368180000165
131,2.8193178955198895e-05,0.6030727195739746,0.954659090909091,0.3785449376231746,0.9092105263157895,0.9088639973844549,1.0,0.9661764705882353,0.35303746305013955,0.9092105263157895,5.77707659999578
132,2.544464990201774e-05,0.6029042688283053,0.955,0.37227052293325724,0.9052631578947369,0.9050504952663989,1.0,0.9647058823529412,0.35364644935256556,0.9105263157894737,5.7898952000032295
133,2.283661937042025e-05,0.6351125220818953,0.9517045454545454,0.38706151027428476,0.906578947368421,0.9064639729634388,1.0,0.9632352941176471,0.3557625218441612,0.9092105263157895,5.81726609999896
134,2.0370419544760518e-05,0.6224962201985446,0.9493181818181818,0.3597597614714974,0.9118421052631579,0.9117734084652016,1.0,0.9661764705882353,0.35707421585133203,0.9092105263157895,5.784442200005287
135,1.804731016213988e-05,0.6274303723465312,0.9484090909090909,0.3433642745018005,0.9144736842105263,0.9144428934877757,1.0,0.9676470588235294,0.3574939925419657,0.9092105263157895,5.766674999998941
136,1.5868477868931964e-05,0.6093512832034718,0.9597727272727272,0.37427665308902136,0.9092105263157895,0.909048070411983,1.0,0.961764705882353,0.35684943042303385,0.9105263157894737,5.770750399999088
137,1.3835035614642541e-05,0.6039314135638151,0.9588636363636364,0.35438834648383294,0.9118421052631579,0.9116442813927449,1.0,0.9676470588235294,0.35655324772784586,0.9105263157894737,5.7797713999971165
138,1.1948022083414199e-05,0.6071605259721929,0.9592045454545455,0.3573521657993919,0.9078947368421053,0.9074499664136747,1.0,0.9676470588235294,0.3557834835428941,0.9092105263157895,5.77855339999951
139,1.0208401163465185e-05,0.6165202123468573,0.9543181818181818,0.34641675353050233,0.9,0.8994711250801819,1.0,0.961764705882353,0.35596674868935035,0.9092105263157895,5.7767482999988715
140,8.617061454734755e-06,0.5997101070664146,0.9555681818181818,0.38098256901690836,0.9078947368421053,0.9077544472021074,1.0,0.9661764705882353,0.35555677006119174,0.9092105263157895,5.7963655999992625
141,7.1748158149852224e-06,0.6227631449699402,0.9604545454545454,0.4073046223113411,0.9039473684210526,0.9036720034501714,1.0,0.9602941176470589,0.3555218335829283,0.9092105263157895,5.824002099994686
142,5.882400944593751e-06,0.6436202243241397,0.9482954545454545,0.3842607993828623,0.9078947368421053,0.9079074857361136,1.0,0.961764705882353,0.3574432366772702,0.9092105263157895,5.811042699999234
143,4.740477010244959e-06,0.616957276951183,0.9575,0.3377561076691276,0.9105263157894737,0.9105141018797018,1.0,0.9691176470588235,0.3579602690119492,0.9078947368421053,5.795837999998184
144,3.7496273077172435e-06,0.62820293339816,0.96,0.3537356728001645,0.9118421052631579,0.9118792192762278,1.0,0.9676470588235294,0.35829266905784607,0.9078947368421053,5.791280099998403
145,2.9103579639347222e-06,0.6328874068910425,0.9481818181818182,0.3594793219315378,0.9078947368421053,0.9076178164682617,1.0,0.9661764705882353,0.3591770369755594,0.9078947368421053,5.791418499997235
146,2.223097678437247e-06,0.6354678084633567,0.9552272727272727,0.40398583663137333,0.9026315789473685,0.9025536566963156,1.0,0.9602941176470589,0.35923670655802675,0.9092105263157895,5.766642700000375
147,1.6881975044002091e-06,0.6097928261756898,0.95875,0.352213569377598,0.9118421052631579,0.9116083714362867,1.0,0.9661764705882353,0.35917767882347107,0.9092105263157895,5.772383299998182
148,1.3059306693162125e-06,0.6229281690987674,0.9532954545454545,0.37041192337086326,0.9118421052631579,0.9118034962827923,1.0,0.9661764705882353,0.3594139510079434,0.9092105263157895,5.801395100002992
149,1.0764924354303636e-06,0.6502397706291893,0.9520454545454545,0.3787048333569577,0.9105263157894737,0.9103922387544425,1.0,0.9661764705882353,0.3605039891443754,0.9092105263157895,5.802722699998412
150,1e-06,0.6278897198763761,0.9494318181818182,0.38628307173126625,0.9092105263157895,0.9091548271184507,1.0,0.961764705882353,0.3610375649050662,0.9092105263157895,5.834771000001638
