epoch,lr,train_loss,train_accuracy,val_loss,val_accuracy,val_macro_f1,val_trial_accuracy,val_k3,ema_loss,ema_accuracy,seconds
1,5.9999999999999995e-05,1.3433418204567649,0.48977272727272725,1.0236463233044273,0.5894736842105263,0.5758426873147812,0.775,0.6308823529411764,1.6096872417550339,0.2118421052631579,11.322003500001301
2,0.00011999999999999999,1.1653491063551469,0.6267045454545455,0.7006993783147711,0.7381578947368421,0.7313105007108506,0.9,0.7955882352941176,1.612222453167564,0.2,11.150658300000941
3,0.00018,0.983972920070995,0.7368181818181818,0.6818162428705316,0.7447368421052631,0.7479696231264926,0.875,0.8073529411764706,1.622865693192733,0.2,11.15072489999875
4,0.00023999999999999998,0.9193505685979669,0.7930681818181818,0.6357441958628203,0.7526315789473684,0.7556821903113463,0.875,0.7955882352941176,1.646318618874801,0.2,11.237352399999509
5,0.0003,0.8778291563554244,0.8055681818181818,0.4837550414235968,0.8105263157894737,0.8096920184118634,0.95,0.8794117647058823,1.7020578465963665,0.2,11.186765700000251
6,0.00035999999999999997,0.8594851043007591,0.8251136363636363,0.42647062571425187,0.868421052631579,0.8668468833978562,1.0,0.9308823529411765,1.823196572379062,0.2,11.205028000000311
7,0.00042,0.8346555941755122,0.8381818181818181,0.47211827918102867,0.85,0.8444054770397074,0.925,0.8897058823529411,2.015809390419408,0.2,11.123544900001434
8,0.0004799999999999999,0.8369513754411178,0.8418181818181818,0.45982150435447694,0.8552631578947368,0.8578961313107879,0.975,0.9029411764705882,2.2228550958006004,0.2,11.131146299998363
9,0.00054,0.8194024835933339,0.8476136363636364,0.487532345244759,0.8302631578947368,0.8351736714913958,0.95,0.8897058823529411,2.4397200734991777,0.2,11.238534600001003
10,0.0005999999999999998,0.7900307700850747,0.8577272727272728,0.5675359424791838,0.7947368421052632,0.8066884508261088,0.9,0.8176470588235294,2.63555458407653,0.2,11.237159000000247
11,0.0006,0.7884996804324064,0.8653409090909091,0.47221589213923404,0.843421052631579,0.8423677016580922,0.975,0.9014705882352941,2.8458200548824513,0.2,11.229891700000735
12,0.0005999235075645696,0.8038239938562567,0.8643181818181818,0.4953286020379317,0.8394736842105263,0.8348317235066954,0.95,0.8867647058823529,3.0402986219054773,0.20921052631578949,11.191771800000424
13,0.0005996940693306837,0.7535435388304971,0.8796590909090909,0.4622944392656025,0.8539473684210527,0.855178248995925,1.0,0.925,3.2119269113791615,0.2013157894736842,11.285129800002323
14,0.0005993118024955998,0.736905920939012,0.8869318181818182,0.6251888276715027,0.7697368421052632,0.7711907230776772,0.95,0.8411764705882353,3.3373856412736993,0.2,11.19483290000062
15,0.0005987769023215627,0.7489444333856756,0.8839772727272728,0.43966480179836875,0.8763157894736842,0.875428216706237,1.0,0.9397058823529412,3.453865774367985,0.2,11.202295900002355
16,0.0005980896420360653,0.7355694727464156,0.895,0.4806141320027803,0.843421052631579,0.8398357002648076,1.0,0.9,3.594992386667352,0.2,11.198569800002588
17,0.0005972503726922827,0.6982170202515342,0.9044318181818182,0.48994012255417674,0.8407894736842105,0.8407928628484717,0.975,0.9014705882352941,3.867698107267681,0.2,11.2508405999979
18,0.0005962595229897549,0.7071223124590788,0.9068181818181819,0.4239110491777721,0.868421052631579,0.8666229149942021,1.0,0.925,4.020166417172081,0.2,11.269941099999414
19,0.0005951175990554061,0.7256825826384804,0.8952272727272728,0.4493121115784896,0.8657894736842106,0.8665585397022089,1.0,0.9176470588235294,4.019669141581184,0.2,11.140135100002226
20,0.0005938251841850148,0.7106618486751209,0.9075,0.5138241816508142,0.8236842105263158,0.826605833881217,0.975,0.8779411764705882,3.988842050495901,0.2,11.285851099997672
21,0.0005923829385452652,0.698075441013683,0.9181818181818182,0.44830559303886014,0.8526315789473684,0.8496444120222874,0.975,0.9176470588235294,3.928077054808014,0.2,11.1504402999999
22,0.0005907915988365347,0.7145779804749922,0.9068181818181819,0.5504769174676193,0.8394736842105263,0.8352919556352113,0.975,0.8867647058823529,3.868888855451032,0.2,11.15100639999946
23,0.0005890519779165858,0.6941585422645916,0.9236363636363636,0.45915912813261933,0.8486842105263158,0.8485702128966176,0.975,0.9058823529411765,3.834133750357126,0.2,11.117696600002091
24,0.0005871649643853574,0.6844354191693393,0.9220454545454545,0.4591638656038987,0.8473684210526315,0.8505043215633075,1.0,0.9117647058823529,3.8127247062168625,0.2,11.145042000000103
25,0.000585131522131068,0.6759753411466425,0.9296590909090909,0.466004983374947,0.8486842105263158,0.8477818193575505,0.975,0.9161764705882353,3.761541547430189,0.2,11.24091369999951
26,0.0005829526898378601,0.6694173809615048,0.9322727272727273,0.42232019587566977,0.8710526315789474,0.8713169611799915,1.0,0.9338235294117647,3.693589260703639,0.2,11.184020600001531
27,0.0005806295804552395,0.6860299058393998,0.9231818181818182,0.46642010400169776,0.8565789473684211,0.8556535102192202,0.975,0.9235294117647059,3.5999302911131004,0.2013157894736842,11.16030949999913
28,0.0005781633806295796,0.679347100908106,0.9244318181818182,0.484336393130453,0.85,0.847664687006002,0.975,0.9014705882352941,3.404395414967286,0.22105263157894736,11.31529920000321
29,0.0005755553500979822,0.6624713689630681,0.9286363636363636,0.4492589037669332,0.843421052631579,0.8455633847776017,1.0,0.9117647058823529,3.2182046187551396,0.24736842105263157,11.352091500000824
30,0.0005728068210448012,0.6982327761433341,0.9202272727272728,0.4427344871194739,0.8657894736842106,0.864078469925496,1.0,0.9338235294117647,2.9382831771122784,0.2986842105263158,11.17793740000343
31,0.0005699191974211625,0.6510766900669445,0.9328409090909091,0.4534599715157559,0.8447368421052631,0.8437233080573628,1.0,0.9102941176470588,2.5269730417351974,0.35,11.231021600000531
32,0.0005668939542278249,0.6525652249292894,0.9365909090909091,0.5251089811325074,0.8223684210526315,0.8213039760640187,0.95,0.8823529411764706,2.144924204914193,0.3763157894736842,11.208253099997819
33,0.0005637326367617472,0.6642848912152377,0.93125,0.4786007539222115,0.8513157894736842,0.8533063546889782,1.0,0.9235294117647059,1.7475072760331003,0.44605263157894737,11.33535479999773
34,0.0005604368598267504,0.6637591229785572,0.9276136363636364,0.49385078894464596,0.843421052631579,0.8444883214300966,1.0,0.9,1.3758259829721953,0.5105263157894737,11.5007028
35,0.0005570083069086733,0.6428478301655163,0.9353409090909091,0.5975245416164399,0.7934210526315789,0.7866541627630615,0.975,0.8308823529411765,1.1367321626136178,0.5855263157894737,11.151789200001076
36,0.0005534487293154471,0.6642238627780568,0.9401136363636363,0.43686057768369974,0.8671052631578947,0.8667592021426322,1.0,0.9308823529411765,0.9338513829206165,0.6539473684210526,11.148098699999537
37,0.0005497599452825259,0.6664727114547383,0.9392045454545455,0.5250540491781737,0.8342105263157895,0.8378464612204125,0.95,0.8779411764705882,0.7806073649933464,0.7131578947368421,11.099686099998507
38,0.0005459438390441295,0.619204057563435,0.9564772727272727,0.46751664720083536,0.8513157894736842,0.8525294799547151,1.0,0.9279411764705883,0.6775238833929363,0.7684210526315789,11.240262100000109
39,0.0005420023598707758,0.6397279253872958,0.9457954545454546,0.5401818918554406,0.8197368421052632,0.8136887947718403,0.95,0.8529411764705882,0.6167864354033219,0.7894736842105263,11.129131300000154
40,0.0005379375210735911,0.6268710580739107,0.9505681818181818,0.4323491930961609,0.8631578947368421,0.8629863116146735,1.0,0.9367647058823529,0.5707328397976724,0.8065789473684211,11.338641700000153
41,0.0005337513989759092,0.6859487477215853,0.925340909090909,0.4815607168172535,0.8552631578947368,0.8569325111129992,1.0,0.9161764705882353,0.5338218290554849,0.8328947368421052,11.648061399999278
42,0.0005294461318526833,0.6507605804096569,0.94875,0.43676641332475763,0.8605263157894737,0.8606073600468681,1.0,0.9338235294117647,0.5081409262983423,0.8421052631578947,11.545324300001084
43,0.0005250239188382536,0.6768377800421281,0.9346590909090909,0.4490748759947325,0.8776315789473684,0.8785207379432685,0.975,0.9323529411764706,0.48944148076208016,0.8592105263157894,11.201262299997325
44,0.0005204870188030272,0.6548491460626775,0.9376136363636364,0.5524336959186353,0.8236842105263158,0.8213658688906561,0.975,0.8764705882352941,0.47451376632640235,0.8578947368421053,11.107672399997682
45,0.0005158377491996452,0.6303422911600634,0.9484090909090909,0.4249302123722277,0.8671052631578947,0.8655265700591874,0.975,0.9235294117647059,0.4626386937342192,0.8644736842105263,11.108703900001274
46,0.0005110784848792257,0.6393694522164085,0.9390909090909091,0.42098766126130754,0.8776315789473684,0.8763832292541132,0.975,0.9308823529411765,0.44930757221422696,0.8644736842105263,11.15982989999975
47,0.0005062116568782877,0.6818086798624559,0.9405681818181818,0.41587428136875754,0.875,0.8743599419928799,1.0,0.9485294117647058,0.4402009455781234,0.8697368421052631,11.1689065999999
48,0.0005012397511769754,0.5971785428307274,0.9494318181818182,0.45756366064673976,0.8460526315789474,0.844299735678408,0.95,0.9102941176470588,0.42970613272566544,0.8736842105263158,11.174032800001442
49,0.0004961653074292177,0.6145785383744673,0.9547727272727272,0.4249020632944609,0.8763157894736842,0.8753240134412072,1.0,0.9470588235294117,0.42331191677796215,0.8736842105263158,11.16864010000063
50,0.0004909909176654702,0.6206303193352439,0.9422727272727273,0.438410106928725,0.8644736842105263,0.8661380899724435,0.975,0.9323529411764706,0.41745464895900924,0.8789473684210526,11.085161099999823
51,0.00048571922496870357,0.6061986927552657,0.9543181818181818,0.47231587767601013,0.8618421052631579,0.8606995304635712,1.0,0.925,0.4123414896036449,0.8802631578947369,11.114004300001397
52,0.00048035292212431514,0.672003650448539,0.9331818181818182,0.42537496435014827,0.8828947368421053,0.8823595944279411,1.0,0.9455882352941176,0.4102615563493026,0.881578947368421,11.15450039999996
53,0.0004748947502446508,0.648335818160664,0.9476136363636364,0.44945250153541566,0.8565789473684211,0.857289367408834,0.95,0.9117647058823529,0.40763353140730607,0.8842105263157894,11.176514799997676
54,0.00046934749736884306,0.6051610642129724,0.96,0.4826713160464638,0.8473684210526315,0.8466772168204798,0.975,0.9044117647058824,0.4053101796852915,0.881578947368421,11.127695900002436
55,0.0004637139970386777,0.6795751424269243,0.9278409090909091,0.4449136831258473,0.875,0.8744385381470339,0.975,0.9352941176470588,0.4033851231399335,0.8828947368421053,11.206580599999143
56,0.000457997126851218,0.6098647294261239,0.9592045454545455,0.4027471843518709,0.868421052631579,0.8687038725209778,0.975,0.9294117647058824,0.400777836849815,0.8828947368421053,11.036154299999907
57,0.00045219980698892607,0.6309692345965993,0.9498863636363636,0.4801268721881666,0.8605263157894737,0.859479935208671,1.0,0.9367647058823529,0.4003919099506579,0.8828947368421053,11.314795700000104
58,0.0004463249987280305,0.5960192070224068,0.9595454545454546,0.4951560964709834,0.8342105263157895,0.8365000483567693,0.95,0.8897058823529411,0.4002012964926268,0.8789473684210526,11.19657609999922
59,0.000440375702925904,0.6095677709579468,0.9619318181818182,0.4835910593208514,0.8407894736842105,0.8426569259616059,1.0,0.9014705882352941,0.4001686902422654,0.8802631578947369,11.224725700001727
60,0.0004343549584882226,0.6704370247233997,0.9329545454545455,0.4770364055508061,0.8460526315789474,0.8464780291031767,1.0,0.9147058823529411,0.4006249681899422,0.8776315789473684,11.187892199999624
61,0.00042826584081669025,0.6673665421659296,0.9397727272727273,0.47168727705353186,0.8605263157894737,0.8611226561207665,1.0,0.9220588235294118,0.40237025147990174,0.8802631578947369,11.272086500001024
62,0.00042211146023812037,0.6111943013017828,0.9502272727272727,0.48073686329942,0.8302631578947368,0.831453142463622,0.975,0.9147058823529411,0.40295317863163194,0.8855263157894737,11.10357490000024
63,0.0004158949604156783,0.6170019175789573,0.954659090909091,0.4526781577812998,0.8605263157894737,0.8600681629174736,1.0,0.9102941176470588,0.40128141704358555,0.8894736842105263,11.073485900000378
64,0.0004096195167430953,0.6168176454847509,0.96,0.4292723000049591,0.8644736842105263,0.8647237111607051,1.0,0.9294117647058824,0.4001141199940129,0.8907894736842106,11.078152000001865
65,0.0004032883347226749,0.6193509331616488,0.9522727272727273,0.45101262236896317,0.8592105263157894,0.8592393682043363,1.0,0.9235294117647059,0.40109477701940033,0.8868421052631579,11.100103999997373
66,0.0003969046483279189,0.6196634997021068,0.9551136363636363,0.5031340746503127,0.8381578947368421,0.8382244903141218,1.0,0.8985294117647059,0.39913442448565833,0.8855263157894737,11.071835499998997
67,0.0003904717183516109,0.6065171904997392,0.9506818181818182,0.49360480041880356,0.843421052631579,0.8445636115752055,0.95,0.9044117647058824,0.3992463356570194,0.8855263157894737,11.062283399998705
68,0.0003839928307402005,0.6218040670048107,0.9530681818181819,0.4448246209244979,0.875,0.8759293613115297,1.0,0.9411764705882353,0.39680087409521403,0.8907894736842106,11.065990099999908
69,0.00037747129491533916,0.6173527017506686,0.9517045454545454,0.4258143377931494,0.8868421052631579,0.8865295604102201,1.0,0.9411764705882353,0.3942971471108888,0.8907894736842106,11.09158060000118
70,0.0003709104420834241,0.5968054816939614,0.9590909090909091,0.44210815523800095,0.8697368421052631,0.8694597622897605,1.0,0.9264705882352942,0.39384010810601083,0.8921052631578947,11.094488000002457
71,0.00036431362353401533,0.6216288637031209,0.955,0.4747234943665956,0.8513157894736842,0.8502007332548469,1.0,0.9235294117647059,0.39222263442842586,0.8960526315789473,11.459788600001048
72,0.0003576842089279937,0.5786263820258054,0.9626136363636364,0.5531625854341607,0.825,0.8219978400101647,0.975,0.8720588235294118,0.3933639520093014,0.8934210526315789,11.353623599999992
73,0.0003510255845763356,0.571019349640066,0.9695454545454546,0.4632235884666443,0.8644736842105263,0.8633899621823552,1.0,0.9191176470588235,0.39241156358467905,0.8907894736842106,11.226393900000403
74,0.0003443411517103819,0.622453900900754,0.9555681818181818,0.4557491911085028,0.8842105263157894,0.8843051821850219,1.0,0.9441176470588235,0.3910013703923476,0.8907894736842106,10.956653699999151
75,0.0003376343247444856,0.6175867249748923,0.9601136363636363,0.4767452453312121,0.8565789473684211,0.8554739350043901,0.975,0.9382352941176471,0.39202089780255367,0.8894736842105263,10.986950899998192
76,0.0003309085295319264,0.6336582173000682,0.9534090909090909,0.454928227474815,0.8644736842105263,0.8650933177591703,1.0,0.9205882352941176,0.39195151046702736,0.8881578947368421,10.968359999998938
77,0.0003241672016149815,0.6189679831808264,0.9564772727272727,0.4665348260026229,0.8618421052631579,0.8629801376089393,1.0,0.913235294117647,0.3918892712969529,0.8894736842105263,11.037271600001986
78,0.00031741378447004763,0.6318953156471252,0.9401136363636363,0.43421044694749933,0.875,0.8744607577643133,1.0,0.9279411764705883,0.39216473290794773,0.8842105263157894,11.027498699997523
79,0.00031065172774871004,0.5863608232411471,0.9669318181818182,0.4719620544659464,0.8539473684210527,0.854594263620224,1.0,0.9117647058823529,0.3926071559128008,0.8842105263157894,11.037724800000433
80,0.00030388448551565744,0.6042761258645492,0.9609090909090909,0.4582986125820561,0.8618421052631579,0.8611409954328139,1.0,0.9264705882352942,0.3951852086343263,0.881578947368421,11.137333900001977
81,0.0002971155144843426,0.6119870340824127,0.9560227272727273,0.5076513186881416,0.8421052631578947,0.843729157089885,0.975,0.9,0.398024267585654,0.8802631578947369,11.177508799999487
82,0.0002903482722512899,0.6101210236549377,0.9670454545454545,0.44983343701613576,0.868421052631579,0.8673956143980034,1.0,0.9279411764705883,0.40004413002415706,0.8802631578947369,10.970104100000754
83,0.0002835862155299524,0.6023359981450167,0.9606818181818182,0.43089551360983597,0.8644736842105263,0.8642653694555389,1.0,0.9323529411764706,0.40104357976662486,0.8828947368421053,10.943315599997732
84,0.00027683279838501855,0.6067598169500178,0.965,0.4466727818313398,0.8657894736842106,0.8658597177207088,1.0,0.9382352941176471,0.40186269691115933,0.8828947368421053,11.08071850000124
85,0.00027009147046807365,0.6302293025363576,0.9517045454545454,0.4633773806848024,0.8552631578947368,0.8562962844319157,1.0,0.9205882352941176,0.40344021414455616,0.8855263157894737,11.035875900000974
86,0.0002633656752555145,0.6001960332827134,0.9535227272727272,0.4724054443208795,0.8618421052631579,0.8625574801173357,1.0,0.9279411764705883,0.40482265980620136,0.8842105263157894,11.03492389999883
87,0.00025665884828961807,0.6389575164968317,0.9554545454545454,0.42777509093284605,0.8605263157894737,0.8601480523112178,1.0,0.9411764705882353,0.4042716572159215,0.8842105263157894,11.185257900000579
88,0.00024997441542366436,0.59007922985337,0.9609090909090909,0.44190866570723686,0.8657894736842106,0.8662112192823089,1.0,0.9382352941176471,0.40379614641791894,0.8802631578947369,10.971595399998478
89,0.00024331579107200632,0.5887083833867853,0.9661363636363637,0.44092624156098614,0.8697368421052631,0.8706318013713563,1.0,0.9352941176470588,0.4036653220653534,0.8828947368421053,11.061853899998823
90,0.0002366863764659847,0.6174376236308705,0.9613636363636363,0.41459523313923885,0.8828947368421053,0.8824856449608334,1.0,0.9397058823529412,0.40490521945451435,0.8789473684210526,11.12638700000025
91,0.0002300895579165759,0.586276995268735,0.9657954545454546,0.4288444509631709,0.8723684210526316,0.8723302727046048,1.0,0.9352941176470588,0.4048200111640127,0.8802631578947369,11.113473499997781
92,0.0002235287050846607,0.537214788090099,0.9819318181818182,0.4303981580232319,0.868421052631579,0.8691717447290236,1.0,0.9294117647058824,0.4047357656453785,0.8828947368421053,10.982652699996834
93,0.00021700716925979942,0.6282541745359247,0.9528409090909091,0.4597718097661671,0.8605263157894737,0.8586560148173895,0.95,0.9264705882352942,0.40586419262384116,0.881578947368421,11.202326000002358
94,0.00021052828164838913,0.5863583197376945,0.9646590909090909,0.4573260655528621,0.8539473684210527,0.8540186194284356,1.0,0.9147058823529411,0.40696812585780495,0.8828947368421053,11.15492340000128
95,0.00020409535167208103,0.6142168462276458,0.9506818181818182,0.45293900245114377,0.8592105263157894,0.8595033244355387,1.0,0.9147058823529411,0.4082597431383635,0.8802631578947369,11.236443599998893
96,0.00019771166527732506,0.5962225755778225,0.9630681818181818,0.4175747121635236,0.8710526315789474,0.8709293907123709,1.0,0.9235294117647059,0.407758934560575,0.881578947368421,11.148945199998707
97,0.00019138048325690465,0.5899081346121702,0.9685227272727273,0.4505529312711013,0.8618421052631579,0.8614840416778506,1.0,0.9323529411764706,0.40623747141737687,0.8828947368421053,11.085519000000204
98,0.00018510503958432174,0.5987333462455056,0.9694318181818182,0.46136089218290227,0.8592105263157894,0.85923226575479,0.975,0.9088235294117647,0.40781868288391515,0.881578947368421,11.162447800001246
99,0.0001788885397618797,0.6177498503164811,0.9593181818181818,0.4375901881017183,0.8605263157894737,0.8611017515999482,1.0,0.9279411764705883,0.4085393005295804,0.8855263157894737,11.127176599999075
100,0.00017273415918330973,0.6228759788383137,0.9592045454545455,0.43024500796669407,0.8723684210526316,0.8713714912485442,1.0,0.9352941176470588,0.4090262958877965,0.8855263157894737,11.21340009999767
101,0.00016664504151177735,0.6096443577246232,0.9575,0.4247344167608964,0.8763157894736842,0.8765061320593507,1.0,0.9382352941176471,0.4086506896897366,0.8868421052631579,11.108511099999305
102,0.00016062429707409598,0.5719412127408114,0.9657954545454546,0.42863279737924276,0.8736842105263158,0.874185835391881,1.0,0.9220588235294118,0.4067671129578038,0.8894736842105263,10.922163300001557
103,0.00015467500127196946,0.5992819633267142,0.9690909090909091,0.4447167638101076,0.8539473684210527,0.8537763596705877,0.975,0.9308823529411765,0.40609998138327347,0.8907894736842106,11.15775819999908
104,0.0001488001930110739,0.5979821754585612,0.9657954545454546,0.4277310023182317,0.868421052631579,0.8675110122123671,1.0,0.9338235294117647,0.40644908641514027,0.8881578947368421,11.110095600000932
105,0.00014300287314878202,0.5669592482393438,0.9685227272727273,0.45926104031111065,0.8578947368421053,0.8577623884084711,0.975,0.9161764705882353,0.40653148513091236,0.8855263157894737,11.061252300001797
106,0.00013728600296132235,0.5801737269488247,0.9747727272727272,0.4321335645098435,0.8736842105263158,0.8735424273259704,1.0,0.9323529411764706,0.4073044616925089,0.8855263157894737,10.924258800001553
107,0.00013165250263115694,0.6105324895815416,0.9665909090909091,0.426909035130551,0.8723684210526316,0.8716970467477265,1.0,0.9308823529411765,0.4080286116976487,0.8855263157894737,10.836542299999564
108,0.0001261052497553492,0.5981010445681485,0.9611363636363637,0.46036344829358555,0.8592105263157894,0.8593615725287662,1.0,0.9147058823529411,0.41037228295677586,0.8855263157894737,11.08041719999892
109,0.0001206470778756849,0.5993128893592141,0.9668181818181818,0.43700344656643114,0.8763157894736842,0.8758127665039576,1.0,0.9338235294117647,0.4140225052833557,0.8842105263157894,11.211963699999615
110,0.0001152807750312964,0.6030581760406494,0.9622727272727273,0.45565169579104375,0.8605263157894737,0.8611177610684517,1.0,0.9264705882352942,0.4173102934109537,0.881578947368421,11.190074599999207
111,0.00011000908233452982,0.5952615683728998,0.9665909090909091,0.44387126815946476,0.8697368421052631,0.8695714319844893,1.0,0.9352941176470588,0.42015453137849507,0.881578947368421,11.16475839999839
112,0.00010483469257078224,0.6059555262869054,0.9613636363636363,0.46871104930576524,0.8644736842105263,0.8648304248500361,0.95,0.9073529411764706,0.4213101029396057,0.881578947368421,11.178816600000573
113,9.976024882302456e-05,0.5849290097843517,0.9684090909090909,0.41628859639167787,0.8828947368421053,0.8832417954419751,1.0,0.9338235294117647,0.4223763707437013,0.881578947368421,11.16015619999962
114,9.478834312171236e-05,0.6043017595464533,0.9648863636363636,0.4371685620985533,0.8723684210526316,0.8737950199477327,1.0,0.925,0.41994219422340395,0.8802631578947369,11.17528040000252
115,8.992151512077429e-05,0.599315771297975,0.9704545454545455,0.45459843685752466,0.8578947368421053,0.8593753200860833,1.0,0.9191176470588235,0.41975033408717105,0.881578947368421,11.014066800002183
116,8.516225080035476e-05,0.57810293154283,0.9770454545454546,0.44980942481442504,0.868421052631579,0.8690350067777605,1.0,0.9308823529411765,0.420370803694976,0.8789473684210526,11.03781810000146
117,8.051298119697266e-05,0.6059822618961335,0.9697727272727272,0.45424885091028716,0.8644736842105263,0.8661301462502928,1.0,0.9191176470588235,0.42248840237918656,0.8789473684210526,11.143373800001427
118,7.597608116174637e-05,0.5886768763715571,0.9723863636363637,0.4592499591802296,0.868421052631579,0.8698457164042251,1.0,0.9308823529411765,0.4237794574938322,0.875,10.924135400000523
119,7.155386814731662e-05,0.5861051771857522,0.9665909090909091,0.45486048710973637,0.8592105263157894,0.8601283671182476,1.0,0.9323529411764706,0.4249752640724182,0.875,11.01031839999996
120,6.724860102409081e-05,0.5825931433114139,0.9693181818181819,0.459081548766086,0.8539473684210527,0.8534874275925537,1.0,0.9205882352941176,0.4241948981034128,0.8763157894736842,11.087192400002095
121,6.306247892640888e-05,0.5716260749643499,0.9726136363636364,0.4676629320571297,0.8486842105263158,0.8492805257951801,1.0,0.9205882352941176,0.4254007443001396,0.8736842105263158,11.090450300001976
122,5.899764012922409e-05,0.6120623469352722,0.95125,0.4486586724456988,0.8657894736842106,0.8672214082262674,1.0,0.925,0.4260721316463069,0.8697368421052631,11.124304900000425
123,5.5056160955870474e-05,0.5871659055623141,0.9631818181818181,0.43907494858691565,0.8657894736842106,0.867291972057226,1.0,0.9235294117647059,0.42707816581977043,0.868421052631579,11.07320460000119
124,5.1240054717474066e-05,0.5758079871264371,0.9788636363636364,0.41157736527292355,0.8907894736842106,0.890713236781506,1.0,0.9352941176470588,0.42538500396828904,0.8657894736842106,11.157197199998336
125,4.755127068455278e-05,0.6006557516618208,0.9673863636363637,0.4241207734534615,0.8763157894736842,0.8779572133642567,1.0,0.9264705882352942,0.42338361144065856,0.8671052631578947,11.127665199997864
126,4.399169309132677e-05,0.5392369412292134,0.9805681818181818,0.42794285730311743,0.868421052631579,0.8675076645627806,1.0,0.9220588235294118,0.42264789750701504,0.868421052631579,11.177010600000358
127,4.0563140173249585e-05,0.6069661835106936,0.9614772727272727,0.44155956067537006,0.8763157894736842,0.8782076998934996,1.0,0.925,0.4222393644483466,0.8697368421052631,11.197774599997501
128,3.726736323825278e-05,0.58265852635557,0.9643181818181819,0.42272443332170184,0.8736842105263158,0.8743458845119196,1.0,0.9279411764705883,0.4216018667346553,0.8710526315789474,11.17797050000081
129,3.41060457721751e-05,0.5679447538202459,0.9725,0.4201997465208957,0.8776315789473684,0.8776074753391818,1.0,0.9294117647058824,0.4211649847658057,0.8723684210526316,11.116239199996926
130,3.1080802578837415e-05,0.5925386188246987,0.97,0.43216255558164496,0.8723684210526316,0.8729299641677137,1.0,0.9294117647058824,0.4209773816560444,0.8736842105263158,10.968747999999323
131,2.8193178955198895e-05,0.5577508603442799,0.9804545454545455,0.43630901104525516,0.8671052631578947,0.8680214191880145,1.0,0.9235294117647059,0.42146325299614357,0.8723684210526316,11.150114699998085
132,2.544464990201774e-05,0.6385291860320351,0.9610227272727273,0.43220519956789516,0.8736842105263158,0.8739471001049106,1.0,0.9382352941176471,0.4228049820975254,0.8697368421052631,11.187098599999445
133,2.283661937042025e-05,0.6030434715747833,0.9680681818181818,0.43411937606962103,0.8710526315789474,0.872765327648948,1.0,0.9352941176470588,0.4232913359215385,0.8697368421052631,11.228797200001281
134,2.0370419544760518e-05,0.5692954046075994,0.9644318181818182,0.4205898890369817,0.8697368421052631,0.8700305486495562,1.0,0.9308823529411765,0.4214140230103543,0.8710526315789474,11.121507500000007
135,1.804731016213988e-05,0.5904676707224412,0.9613636363636363,0.42954149779520534,0.8710526315789474,0.8718558135684058,1.0,0.9382352941176471,0.4210151277090374,0.8723684210526316,11.163687599997502
136,1.5868477868931964e-05,0.5753885147788308,0.96625,0.4216210619399422,0.8736842105263158,0.8736608593002344,1.0,0.9382352941176471,0.42117976201208013,0.875,11.157361999998102
137,1.3835035614642541e-05,0.5519379095597701,0.9851136363636364,0.42595560111497577,0.8697368421052631,0.8702480789546749,1.0,0.9264705882352942,0.42123790540193257,0.8736842105263158,11.178032799998618
138,1.1948022083414199e-05,0.6230663204193115,0.954659090909091,0.4257770748514878,0.8881578947368421,0.8880387291398779,1.0,0.9441176470588235,0.42156974328191654,0.8736842105263158,11.936356399997749
139,1.0208401163465185e-05,0.596440674608404,0.9655681818181818,0.4507687628269196,0.8657894736842106,0.8672728994019338,1.0,0.925,0.422408737320649,0.8736842105263158,11.337553399996978
140,8.617061454734755e-06,0.5799487927826968,0.9675,0.42479015149568256,0.8723684210526316,0.8732635405354501,1.0,0.9264705882352942,0.4235674415764056,0.8736842105263158,11.268227399999887
141,7.1748158149852224e-06,0.6130247631939975,0.9661363636363637,0.44287510890709725,0.8736842105263158,0.8738828757952322,1.0,0.9308823529411765,0.4246065644841445,0.8723684210526316,11.3363296000025
142,5.882400944593751e-06,0.5798134117776698,0.9710227272727273,0.4307634049340298,0.8710526315789474,0.8725202412493486,1.0,0.9235294117647059,0.4254135925518839,0.8736842105263158,11.38499519999823
143,4.740477010244959e-06,0.5824379589340903,0.9723863636363637,0.4405315198396382,0.8723684210526316,0.8733285715537853,1.0,0.9264705882352942,0.4264095115034204,0.8736842105263158,11.16128899999967
144,3.7496273077172435e-06,0.5787389041077007,0.9735227272727273,0.45301754600123356,0.8618421052631579,0.8634822312108508,1.0,0.9176470588235294,0.42723244209038586,0.8736842105263158,11.39997090000179
145,2.9103579639347222e-06,0.5759925961494445,0.9709090909090909,0.4405164216694079,0.8697368421052631,0.8705617582015728,1.0,0.925,0.4283662488586024,0.8736842105263158,11.27430209999875
146,2.223097678437247e-06,0.5849394371292808,0.9603409090909091,0.44689098094639024,0.8671052631578947,0.8679043683229615,1.0,0.9235294117647059,0.4291639635437413,0.8723684210526316,11.167489400002523
147,1.6881975044002091e-06,0.5689496091279117,0.97125,0.4346409051041854,0.8697368421052631,0.8705597910930745,1.0,0.9220588235294118,0.42949604329309965,0.8723684210526316,11.128052500000194
148,1.3059306693162125e-06,0.5879319314523177,0.9611363636363637,0.43528498662145515,0.8697368421052631,0.8708936497819846,1.0,0.9264705882352942,0.4298851405319415,0.8723684210526316,11.087939200002438
149,1.0764924354303636e-06,0.5900465582717549,0.9744318181818182,0.42868772870615907,0.8671052631578947,0.8679352806915149,1.0,0.9308823529411765,0.43036860321697434,0.8723684210526316,11.2695676000003
150,1e-06,0.5986807671460238,0.9653409090909091,0.4302957628902636,0.8710526315789474,0.8718443764061622,1.0,0.925,0.43119177661444014,0.8723684210526316,11.276785999998538
